% Pose without folding and reset (log_20231228_100553.231/log_pose_abs.txt)
% 1 	Time (sec)
% 2,3 	Position x,y (m)
% 4 	heading (rad)
% 5 	Driven distance (m) - signed
% 6 	Turned angle (rad) - signed
1703754353.3073 0.000 0.000 0.0000 0.000 0.0000
1703754353.3136 0.000 0.000 0.0000 0.000 0.0000
1703754353.3206 -0.000 0.000 0.0000 -0.000 0.0000
1703754353.3276 -0.000 0.000 0.0000 -0.000 0.0000
1703754353.3350 -0.000 0.000 0.0016 -0.000 0.0016
1703754353.3418 -0.000 0.000 0.0016 -0.000 0.0016
1703754353.3492 0.001 0.000 0.0000 0.001 0.0000
1703754353.3561 0.002 0.000 -0.0016 0.002 -0.0016
1703754353.3628 0.002 0.000 0.0000 0.002 0.0000
1703754353.3692 0.003 0.000 0.0000 0.003 0.0000
1703754353.3764 0.003 0.000 0.0000 0.003 0.0000
1703754353.3835 0.004 0.000 0.0000 0.004 0.0000
1703754353.3904 0.005 0.000 0.0000 0.005 0.0000
1703754353.3978 0.006 0.000 0.0000 0.006 0.0000
1703754353.4049 0.007 0.000 0.0000 0.007 0.0000
1703754353.4111 0.008 0.000 0.0016 0.008 0.0016
1703754353.4182 0.010 0.000 0.0000 0.010 0.0000
1703754353.4259 0.011 0.000 0.0000 0.011 0.0000
1703754353.4329 0.013 0.000 0.0031 0.013 0.0031
1703754353.4394 0.015 0.000 0.0016 0.015 0.0016
1703754353.4466 0.016 0.000 0.0016 0.016 0.0016
1703754353.4537 0.018 0.000 0.0031 0.018 0.0031
1703754353.4605 0.020 0.000 0.0031 0.020 0.0031
1703754353.4676 0.022 0.000 0.0031 0.022 0.0031
1703754353.4742 0.023 0.000 0.0016 0.023 0.0016
1703754353.4821 0.025 0.000 0.0047 0.025 0.0047
1703754353.4890 0.027 0.000 0.0031 0.027 0.0031
1703754353.4958 0.029 0.000 0.0031 0.029 0.0031
1703754353.5028 0.031 0.000 0.0016 0.031 0.0016
1703754353.5105 0.033 0.000 0.0016 0.033 0.0016
1703754353.5176 0.035 0.000 0.0016 0.035 0.0016
1703754353.5243 0.037 0.000 0.0031 0.037 0.0031
1703754353.5307 0.039 0.000 0.0016 0.039 0.0016
1703754353.5377 0.041 0.000 0.0016 0.041 0.0016
1703754353.5446 0.042 0.000 0.0016 0.042 0.0016
1703754353.5525 0.044 0.000 0.0016 0.044 0.0016
1703754353.5591 0.045 0.000 0.0016 0.045 0.0016
1703754353.5662 0.048 0.000 0.0016 0.048 0.0016
1703754353.5730 0.050 0.000 -0.0000 0.050 -0.0000
1703754353.5797 0.051 0.000 0.0016 0.051 0.0016
1703754353.5869 0.053 0.000 0.0016 0.053 0.0016
1703754353.5946 0.055 0.000 -0.0000 0.055 -0.0000
1703754353.6015 0.057 0.000 -0.0000 0.057 -0.0000
1703754353.6080 0.059 0.000 -0.0016 0.059 -0.0016
1703754353.6152 0.060 0.000 -0.0000 0.060 -0.0000
1703754353.6221 0.062 0.000 0.0016 0.062 0.0016
1703754353.6287 0.064 0.000 -0.0000 0.064 -0.0000
1703754353.6359 0.065 0.000 -0.0016 0.065 -0.0016
1703754353.6435 0.067 0.000 -0.0000 0.067 -0.0000
1703754353.6505 0.069 0.000 0.0016 0.069 0.0016
1703754353.6573 0.071 0.000 -0.0000 0.071 -0.0000
1703754353.6641 0.073 0.000 -0.0016 0.073 -0.0016
1703754353.6710 0.074 0.000 -0.0016 0.074 -0.0016
1703754353.6778 0.076 0.000 -0.0016 0.076 -0.0016
1703754353.6847 0.078 0.000 -0.0016 0.078 -0.0016
1703754353.6924 0.080 0.000 -0.0031 0.080 -0.0031
1703754353.6994 0.081 0.000 -0.0047 0.081 -0.0047
1703754353.7063 0.083 0.000 -0.0047 0.083 -0.0047
1703754353.7129 0.085 0.000 -0.0047 0.085 -0.0047
1703754353.7200 0.086 0.000 -0.0031 0.086 -0.0031
1703754353.7267 0.088 0.000 -0.0031 0.088 -0.0031
1703754353.7336 0.090 0.000 -0.0031 0.090 -0.0031
1703754353.7414 0.092 0.000 -0.0031 0.092 -0.0031
1703754353.7482 0.094 0.000 -0.0031 0.094 -0.0031
1703754353.7552 0.095 0.000 -0.0016 0.095 -0.0016
1703754353.7618 0.097 0.000 -0.0016 0.097 -0.0016
1703754353.7691 0.098 0.000 -0.0031 0.098 -0.0031
1703754353.7756 0.100 0.000 -0.0031 0.100 -0.0031
1703754353.7836 0.102 0.000 -0.0016 0.102 -0.0016
1703754353.7907 0.104 0.000 0.0000 0.104 -0.0000
1703754353.7973 0.106 0.000 -0.0016 0.106 -0.0016
1703754353.8043 0.108 -0.000 -0.0031 0.108 -0.0031
1703754353.8111 0.109 -0.000 0.0000 0.109 0.0000
1703754353.8182 0.111 -0.000 0.0031 0.111 0.0031
1703754353.8249 0.113 0.000 0.0016 0.113 0.0016
1703754353.8316 0.115 0.000 0.0000 0.115 0.0000
1703754353.8396 0.116 0.000 -0.0016 0.116 -0.0016
1703754353.8462 0.118 0.000 0.0000 0.118 0.0000
1703754353.8531 0.120 0.000 0.0000 0.120 0.0000
1703754353.8599 0.122 0.000 0.0016 0.122 0.0016
1703754353.8671 0.124 0.000 0.0016 0.124 0.0016
1703754353.8740 0.125 0.000 0.0000 0.125 0.0000
1703754353.8816 0.127 0.000 0.0000 0.127 0.0000
1703754353.8885 0.129 0.000 -0.0016 0.129 -0.0016
1703754353.8951 0.131 0.000 -0.0016 0.131 -0.0016
1703754353.9023 0.132 -0.000 0.0000 0.132 0.0000
1703754353.9091 0.134 0.000 0.0016 0.134 0.0016
1703754353.9160 0.135 0.000 0.0000 0.135 0.0000
1703754353.9229 0.137 0.000 0.0000 0.137 0.0000
1703754353.9296 0.139 0.000 0.0000 0.139 0.0000
1703754353.9374 0.141 0.000 0.0000 0.141 0.0000
1703754353.9441 0.142 0.000 0.0000 0.142 0.0000
1703754353.9512 0.144 0.000 -0.0016 0.144 -0.0016
1703754353.9581 0.146 -0.000 -0.0031 0.146 -0.0031
1703754353.9649 0.148 -0.000 -0.0016 0.148 -0.0016
1703754353.9719 0.149 -0.000 0.0000 0.149 0.0000
1703754353.9796 0.151 -0.000 0.0000 0.151 0.0000
1703754353.9866 0.153 -0.000 -0.0016 0.153 -0.0016
1703754353.9934 0.154 -0.000 -0.0016 0.154 -0.0016
1703754354.0002 0.157 -0.000 -0.0031 0.157 -0.0031
1703754354.0071 0.158 -0.000 -0.0016 0.158 -0.0016
1703754354.0139 0.160 -0.000 -0.0016 0.160 -0.0016
1703754354.0208 0.161 -0.000 0.0000 0.161 -0.0000
1703754354.0285 0.163 -0.000 0.0000 0.163 -0.0000
1703754354.0356 0.165 -0.000 0.0000 0.165 -0.0000
1703754354.0426 0.167 -0.000 0.0000 0.167 -0.0000
1703754354.0491 0.169 -0.000 0.0000 0.169 -0.0000
1703754354.0560 0.171 -0.000 0.0016 0.171 0.0016
1703754354.0626 0.172 -0.000 0.0000 0.172 -0.0000
1703754354.0697 0.174 -0.000 0.0016 0.174 0.0016
1703754354.0775 0.175 -0.000 0.0000 0.175 -0.0000
1703754354.0845 0.177 -0.000 -0.0016 0.177 -0.0016
1703754354.0914 0.179 -0.000 -0.0016 0.179 -0.0016
1703754354.0981 0.181 -0.000 -0.0000 0.181 -0.0000
1703754354.1049 0.183 -0.000 -0.0000 0.183 -0.0000
1703754354.1126 0.184 -0.000 0.0016 0.184 0.0016
1703754354.1186 0.186 -0.000 -0.0000 0.186 -0.0000
1703754354.1258 0.188 -0.000 -0.0000 0.188 -0.0000
1703754354.1335 0.190 -0.000 -0.0000 0.190 -0.0000
1703754354.1404 0.191 -0.000 -0.0000 0.191 -0.0000
1703754354.1470 0.193 -0.000 0.0016 0.193 0.0016
1703754354.1540 0.195 -0.000 0.0016 0.195 0.0016
1703754354.1606 0.197 -0.000 -0.0000 0.197 -0.0000
1703754354.1686 0.198 -0.000 -0.0000 0.198 -0.0000
1703754354.1746 0.200 -0.000 0.0016 0.200 0.0016
1703754354.1824 0.202 -0.000 0.0016 0.202 0.0016
1703754354.1893 0.203 -0.000 -0.0000 0.203 -0.0000
1703754354.1959 0.206 -0.000 -0.0000 0.206 -0.0000
1703754354.2029 0.207 -0.000 -0.0000 0.207 -0.0000
1703754354.2098 0.209 -0.000 0.0016 0.209 0.0016
1703754354.2166 0.210 -0.000 0.0016 0.210 0.0016
1703754354.2246 0.212 -0.000 0.0016 0.212 0.0016
1703754354.2313 0.214 -0.000 -0.0000 0.214 -0.0000
1703754354.2382 0.216 -0.000 -0.0000 0.216 -0.0000
1703754354.2450 0.217 -0.000 0.0016 0.217 0.0016
1703754354.2518 0.219 -0.000 0.0031 0.219 0.0031
1703754354.2587 0.221 0.000 0.0016 0.221 0.0016
1703754354.2657 0.223 0.000 -0.0000 0.223 -0.0000
1703754354.2735 0.224 0.000 -0.0000 0.224 -0.0000
1703754354.2802 0.226 0.000 0.0016 0.226 0.0016
1703754354.2871 0.228 0.000 0.0016 0.228 0.0016
1703754354.2942 0.230 0.000 0.0016 0.230 0.0016
1703754354.3009 0.232 0.000 -0.0000 0.232 -0.0000
1703754354.3080 0.233 0.000 -0.0031 0.233 -0.0031
1703754354.3148 0.235 0.000 -0.0078 0.235 -0.0078
1703754354.3218 0.237 -0.000 -0.0124 0.237 -0.0124
1703754354.3295 0.239 -0.000 -0.0171 0.239 -0.0171
1703754354.3362 0.240 -0.000 -0.0186 0.240 -0.0186
1703754354.3432 0.242 -0.000 -0.0233 0.242 -0.0233
1703754354.3500 0.244 -0.000 -0.0310 0.244 -0.0310
1703754354.3569 0.245 -0.000 -0.0373 0.245 -0.0373
1703754354.3648 0.247 -0.000 -0.0466 0.247 -0.0466
1703754354.3706 0.249 -0.000 -0.0559 0.249 -0.0559
1703754354.3776 0.250 -0.000 -0.0652 0.250 -0.0652
1703754354.3852 0.252 -0.001 -0.0745 0.252 -0.0745
1703754354.3921 0.254 -0.001 -0.0838 0.254 -0.0838
1703754354.3989 0.255 -0.001 -0.0962 0.255 -0.0962
1703754354.4059 0.257 -0.001 -0.1056 0.257 -0.1056
1703754354.4126 0.259 -0.001 -0.1164 0.259 -0.1164
1703754354.4196 0.261 -0.001 -0.1288 0.261 -0.1288
1703754354.4276 0.262 -0.002 -0.1397 0.263 -0.1397
1703754354.4342 0.264 -0.002 -0.1537 0.264 -0.1537
1703754354.4412 0.266 -0.002 -0.1645 0.266 -0.1645
1703754354.4478 0.267 -0.003 -0.1723 0.268 -0.1723
1703754354.4547 0.269 -0.003 -0.1785 0.270 -0.1785
1703754354.4617 0.271 -0.003 -0.1863 0.271 -0.1863
1703754354.4695 0.273 -0.003 -0.1940 0.273 -0.1940
1703754354.4765 0.274 -0.004 -0.2018 0.275 -0.2018
1703754354.4831 0.276 -0.004 -0.2111 0.276 -0.2111
1703754354.4902 0.278 -0.005 -0.2173 0.278 -0.2173
1703754354.4968 0.279 -0.005 -0.2220 0.280 -0.2220
1703754354.5037 0.281 -0.005 -0.2282 0.282 -0.2282
1703754354.5106 0.283 -0.006 -0.2359 0.283 -0.2359
1703754354.5185 0.284 -0.006 -0.2375 0.285 -0.2375
1703754354.5254 0.286 -0.006 -0.2406 0.286 -0.2406
1703754354.5322 0.288 -0.007 -0.2468 0.288 -0.2468
1703754354.5392 0.290 -0.007 -0.2499 0.290 -0.2499
1703754354.5461 0.291 -0.008 -0.2499 0.292 -0.2499
1703754354.5526 0.293 -0.008 -0.2530 0.294 -0.2530
1703754354.5596 0.295 -0.009 -0.2546 0.295 -0.2546
1703754354.5674 0.296 -0.009 -0.2546 0.297 -0.2546
1703754354.5743 0.298 -0.010 -0.2561 0.299 -0.2561
1703754354.5813 0.300 -0.010 -0.2546 0.301 -0.2546
1703754354.5881 0.301 -0.010 -0.2546 0.303 -0.2546
1703754354.5951 0.303 -0.011 -0.2546 0.304 -0.2546
1703754354.6017 0.305 -0.011 -0.2530 0.306 -0.2530
1703754354.6096 0.307 -0.012 -0.2515 0.308 -0.2515
1703754354.6164 0.308 -0.012 -0.2484 0.309 -0.2484
1703754354.6235 0.310 -0.013 -0.2453 0.311 -0.2453
1703754354.6304 0.311 -0.013 -0.2422 0.313 -0.2422
1703754354.6371 0.313 -0.013 -0.2359 0.315 -0.2359
1703754354.6440 0.315 -0.014 -0.2266 0.316 -0.2266
1703754354.6506 0.316 -0.014 -0.2173 0.318 -0.2173
1703754354.6586 0.318 -0.014 -0.2049 0.319 -0.2049
1703754354.6656 0.319 -0.015 -0.1925 0.321 -0.1925
1703754354.6724 0.321 -0.015 -0.1785 0.322 -0.1785
1703754354.6793 0.322 -0.015 -0.1645 0.324 -0.1645
1703754354.6859 0.324 -0.016 -0.1506 0.326 -0.1506
1703754354.6929 0.326 -0.016 -0.1350 0.328 -0.1350
1703754354.7006 0.328 -0.016 -0.1195 0.329 -0.1195
1703754354.7075 0.330 -0.016 -0.1024 0.332 -0.1024
1703754354.7147 0.332 -0.017 -0.0854 0.334 -0.0854
1703754354.7212 0.334 -0.017 -0.0683 0.336 -0.0683
1703754354.7282 0.336 -0.017 -0.0497 0.338 -0.0497
1703754354.7348 0.338 -0.017 -0.0279 0.339 -0.0279
1703754354.7418 0.340 -0.017 -0.0093 0.341 -0.0093
1703754354.7486 0.342 -0.017 0.0093 0.344 0.0093
1703754354.7556 0.344 -0.017 0.0264 0.346 0.0264
1703754354.7636 0.346 -0.017 0.0466 0.348 0.0466
1703754354.7704 0.349 -0.017 0.0652 0.350 0.0652
1703754354.7772 0.351 -0.016 0.0854 0.352 0.0854
1703754354.7838 0.353 -0.016 0.1040 0.354 0.1040
1703754354.7909 0.354 -0.016 0.1242 0.356 0.1242
1703754354.7978 0.356 -0.016 0.1444 0.358 0.1444
1703754354.8047 0.358 -0.016 0.1661 0.360 0.1661
1703754354.8116 0.360 -0.015 0.1847 0.362 0.1847
1703754354.8195 0.362 -0.015 0.2049 0.364 0.2049
1703754354.8264 0.364 -0.014 0.2266 0.366 0.2266
1703754354.8330 0.366 -0.014 0.2499 0.368 0.2499
1703754354.8398 0.368 -0.013 0.2716 0.370 0.2716
1703754354.8469 0.369 -0.013 0.2887 0.372 0.2887
1703754354.8536 0.371 -0.012 0.3089 0.373 0.3089
1703754354.8606 0.373 -0.012 0.3337 0.376 0.3337
1703754354.8685 0.375 -0.011 0.3539 0.377 0.3539
1703754354.8754 0.377 -0.010 0.3725 0.379 0.3725
1703754354.8823 0.378 -0.010 0.3943 0.381 0.3943
1703754354.8888 0.380 -0.009 0.4160 0.383 0.4160
1703754354.8959 0.382 -0.008 0.4362 0.385 0.4362
1703754354.9036 0.383 -0.007 0.4564 0.387 0.4564
1703754354.9105 0.385 -0.007 0.4765 0.388 0.4765
1703754354.9174 0.387 -0.006 0.4983 0.390 0.4983
1703754354.9242 0.388 -0.005 0.5216 0.392 0.5216
1703754354.9311 0.390 -0.004 0.5433 0.394 0.5433
1703754354.9380 0.391 -0.003 0.5619 0.396 0.5619
1703754354.9448 0.393 -0.002 0.5821 0.397 0.5821
1703754354.9525 0.394 -0.001 0.6023 0.399 0.6023
1703754354.9594 0.396 -0.000 0.6240 0.401 0.6240
1703754354.9665 0.397 0.001 0.6473 0.403 0.6473
1703754354.9731 0.399 0.002 0.6675 0.405 0.6675
1703754354.9803 0.400 0.003 0.6892 0.407 0.6892
1703754354.9870 0.401 0.004 0.7109 0.408 0.7109
1703754354.9939 0.403 0.005 0.7311 0.410 0.7311
1703754355.0016 0.404 0.007 0.7528 0.412 0.7528
1703754355.0084 0.405 0.008 0.7746 0.413 0.7746
1703754355.0154 0.406 0.009 0.7963 0.415 0.7963
1703754355.0221 0.408 0.010 0.8196 0.417 0.8196
1703754355.0292 0.409 0.012 0.8398 0.419 0.8398
1703754355.0359 0.410 0.013 0.8584 0.420 0.8584
1703754355.0428 0.411 0.014 0.8786 0.422 0.8786
1703754355.0498 0.412 0.015 0.9019 0.423 0.9019
1703754355.0573 0.413 0.017 0.9220 0.425 0.9220
1703754355.0644 0.414 0.018 0.9422 0.427 0.9422
1703754355.0712 0.415 0.019 0.9640 0.428 0.9640
1703754355.0781 0.416 0.021 0.9857 0.430 0.9857
1703754355.0849 0.417 0.022 1.0059 0.432 1.0059
1703754355.0917 0.418 0.024 1.0276 0.433 1.0276
1703754355.0986 0.419 0.025 1.0493 0.435 1.0493
1703754355.1063 0.419 0.027 1.0695 0.437 1.0695
1703754355.1132 0.420 0.028 1.0912 0.438 1.0912
1703754355.1201 0.421 0.030 1.1145 0.441 1.1145
1703754355.1271 0.422 0.032 1.1347 0.443 1.1347
1703754355.1340 0.423 0.033 1.1549 0.444 1.1549
1703754355.1407 0.423 0.034 1.1751 0.446 1.1751
1703754355.1476 0.424 0.036 1.1968 0.447 1.1968
1703754355.1553 0.424 0.038 1.2185 0.449 1.2185
1703754355.1624 0.425 0.039 1.2403 0.451 1.2403
1703754355.1692 0.426 0.041 1.2620 0.453 1.2620
1703754355.1760 0.426 0.043 1.2853 0.455 1.2853
1703754355.1829 0.427 0.044 1.3054 0.456 1.3054
1703754355.1896 0.427 0.046 1.3241 0.457 1.3241
1703754355.1976 0.427 0.047 1.3443 0.459 1.3443
1703754355.2042 0.428 0.049 1.3629 0.461 1.3629
1703754355.2113 0.428 0.051 1.3831 0.463 1.3831
1703754355.2184 0.428 0.053 1.4001 0.465 1.4001
1703754355.2249 0.429 0.054 1.4188 0.466 1.4188
1703754355.2319 0.429 0.056 1.4327 0.468 1.4327
1703754355.2396 0.429 0.057 1.4483 0.469 1.4483
1703754355.2465 0.429 0.059 1.4607 0.471 1.4607
1703754355.2535 0.430 0.061 1.4746 0.473 1.4746
1703754355.2602 0.430 0.063 1.4886 0.475 1.4886
1703754355.2673 0.430 0.064 1.5010 0.476 1.5010
1703754355.2740 0.430 0.065 1.5088 0.478 1.5088
1703754355.2808 0.430 0.067 1.5181 0.479 1.5181
1703754355.2885 0.430 0.069 1.5259 0.481 1.5259
1703754355.2948 0.430 0.070 1.5321 0.482 1.5321
1703754355.3017 0.430 0.071 1.5367 0.484 1.5367
1703754355.3094 0.430 0.073 1.5398 0.485 1.5398
1703754355.3165 0.430 0.074 1.5414 0.486 1.5414
1703754355.3231 0.430 0.075 1.5414 0.488 1.5414
1703754355.3301 0.430 0.077 1.5398 0.489 1.5398
1703754355.3368 0.430 0.078 1.5383 0.491 1.5383
1703754355.3438 0.430 0.080 1.5336 0.492 1.5336
1703754355.3507 0.430 0.081 1.5290 0.493 1.5290
1703754355.3584 0.431 0.083 1.5228 0.495 1.5228
1703754355.3655 0.431 0.084 1.5134 0.496 1.5134
1703754355.3722 0.431 0.086 1.5057 0.498 1.5057
1703754355.3791 0.431 0.087 1.4948 0.499 1.4948
1703754355.3863 0.431 0.089 1.4840 0.501 1.4840
1703754355.3928 0.431 0.091 1.4731 0.503 1.4731
1703754355.3997 0.431 0.092 1.4607 0.505 1.4607
1703754355.4074 0.431 0.094 1.4467 0.506 1.4467
1703754355.4145 0.432 0.096 1.4327 0.508 1.4327
1703754355.4212 0.432 0.097 1.4188 0.510 1.4188
1703754355.4281 0.432 0.099 1.4032 0.511 1.4032
1703754355.4351 0.433 0.101 1.3877 0.513 1.3877
1703754355.4418 0.433 0.103 1.3737 0.515 1.3737
1703754355.4497 0.433 0.105 1.3567 0.517 1.3567
1703754355.4563 0.434 0.107 1.3411 0.519 1.3411
1703754355.4632 0.434 0.109 1.3256 0.521 1.3256
1703754355.4703 0.435 0.110 1.3101 0.523 1.3101
1703754355.4772 0.435 0.112 1.2946 0.525 1.2946
1703754355.4841 0.436 0.114 1.2791 0.527 1.2791
1703754355.4908 0.436 0.116 1.2651 0.528 1.2651
1703754355.4977 0.437 0.117 1.2511 0.530 1.2511
1703754355.5054 0.437 0.119 1.2387 0.532 1.2387
1703754355.5122 0.438 0.121 1.2247 0.534 1.2247
1703754355.5193 0.439 0.122 1.2092 0.535 1.2092
1703754355.5262 0.439 0.124 1.1952 0.537 1.1952
1703754355.5331 0.440 0.125 1.1828 0.539 1.1828
1703754355.5397 0.440 0.127 1.1704 0.540 1.1704
1703754355.5468 0.441 0.128 1.1580 0.542 1.1580
1703754355.5539 0.442 0.130 1.1456 0.544 1.1456
1703754355.5614 0.442 0.131 1.1347 0.545 1.1347
1703754355.5676 0.443 0.133 1.1238 0.547 1.1238
1703754355.5753 0.444 0.135 1.1145 0.549 1.1145
1703754355.5822 0.445 0.136 1.1083 0.551 1.1083
1703754355.5889 0.446 0.138 1.1005 0.552 1.1005
1703754355.5957 0.446 0.139 1.0897 0.554 1.0897
1703754355.6027 0.447 0.141 1.0819 0.556 1.0819
1703754355.6106 0.448 0.142 1.0773 0.557 1.0773
1703754355.6175 0.449 0.144 1.0680 0.559 1.0680
1703754355.6242 0.449 0.145 1.0602 0.561 1.0602
1703754355.6312 0.450 0.147 1.0555 0.562 1.0555
1703754355.6381 0.451 0.148 1.0509 0.564 1.0509
1703754355.6448 0.452 0.149 1.0447 0.566 1.0447
1703754355.6520 0.453 0.151 1.0400 0.567 1.0400
1703754355.6588 0.453 0.152 1.0369 0.569 1.0369
1703754355.6660 0.454 0.154 1.0322 0.571 1.0322
1703754355.6726 0.455 0.155 1.0307 0.572 1.0307
1703754355.6805 0.456 0.157 1.0291 0.574 1.0291
1703754355.6874 0.457 0.158 1.0260 0.576 1.0260
1703754355.6941 0.458 0.160 1.0245 0.577 1.0245
1703754355.7012 0.459 0.161 1.0245 0.579 1.0245
1703754355.7078 0.460 0.162 1.0229 0.581 1.0229
1703754355.7149 0.460 0.164 1.0214 0.582 1.0214
1703754355.7218 0.461 0.165 1.0214 0.584 1.0214
1703754355.7294 0.462 0.167 1.0214 0.586 1.0214
1703754355.7363 0.463 0.168 1.0229 0.587 1.0229
1703754355.7430 0.464 0.170 1.0214 0.590 1.0214
1703754355.7501 0.465 0.171 1.0198 0.591 1.0198
1703754355.7569 0.466 0.173 1.0198 0.593 1.0198
1703754355.7638 0.467 0.174 1.0229 0.595 1.0229
1703754355.7708 0.468 0.176 1.0229 0.596 1.0229
1703754355.7784 0.469 0.177 1.0229 0.598 1.0229
1703754355.7852 0.470 0.179 1.0214 0.600 1.0214
1703754355.7922 0.471 0.180 1.0229 0.602 1.0229
1703754355.7991 0.472 0.182 1.0245 0.604 1.0245
1703754355.8061 0.472 0.183 1.0245 0.605 1.0245
1703754355.8127 0.473 0.185 1.0260 0.607 1.0260
1703754355.8198 0.474 0.186 1.0245 0.609 1.0245
1703754355.8275 0.475 0.188 1.0229 0.610 1.0229
1703754355.8344 0.476 0.189 1.0260 0.612 1.0260
1703754355.8413 0.477 0.191 1.0260 0.614 1.0260
1703754355.8481 0.478 0.192 1.0245 0.616 1.0245
1703754355.8551 0.479 0.194 1.0245 0.617 1.0245
1703754355.8617 0.480 0.195 1.0245 0.619 1.0245
1703754355.8688 0.481 0.197 1.0245 0.621 1.0245
1703754355.8765 0.481 0.198 1.0245 0.623 1.0245
1703754355.8836 0.482 0.200 1.0245 0.625 1.0245
1703754355.8906 0.483 0.201 1.0229 0.626 1.0229
1703754355.8971 0.484 0.203 1.0229 0.628 1.0229
1703754355.9040 0.485 0.205 1.0229 0.630 1.0229
1703754355.9106 0.486 0.206 1.0198 0.632 1.0198
1703754355.9177 0.487 0.207 1.0198 0.633 1.0198
1703754355.9257 0.488 0.209 1.0198 0.635 1.0198
1703754355.9325 0.489 0.210 1.0198 0.637 1.0198
1703754355.9394 0.490 0.212 1.0183 0.639 1.0183
1703754355.9461 0.491 0.213 1.0152 0.640 1.0152
1703754355.9528 0.492 0.215 1.0152 0.642 1.0152
1703754355.9605 0.492 0.216 1.0152 0.643 1.0152
1703754355.9676 0.493 0.218 1.0121 0.645 1.0121
1703754355.9737 0.494 0.219 1.0105 0.647 1.0105
1703754355.9814 0.495 0.221 1.0090 0.649 1.0090
1703754355.9884 0.496 0.222 1.0090 0.651 1.0090
1703754355.9950 0.497 0.223 1.0059 0.652 1.0059
1703754356.0019 0.498 0.225 1.0043 0.654 1.0043
1703754356.0097 0.499 0.226 1.0028 0.656 1.0028
1703754356.0157 0.500 0.228 1.0012 0.658 1.0012
1703754356.0227 0.501 0.229 0.9997 0.659 0.9997
1703754356.0304 0.502 0.231 0.9965 0.661 0.9965
1703754356.0374 0.503 0.232 0.9950 0.663 0.9950
1703754356.0440 0.503 0.233 0.9934 0.664 0.9934
1703754356.0509 0.504 0.235 0.9888 0.666 0.9888
1703754356.0579 0.505 0.236 0.9872 0.668 0.9872
1703754356.0647 0.506 0.238 0.9872 0.670 0.9872
1703754356.0716 0.507 0.239 0.9841 0.671 0.9841
1703754356.0794 0.508 0.241 0.9795 0.673 0.9795
1703754356.0863 0.509 0.242 0.9764 0.675 0.9764
1703754356.0931 0.510 0.244 0.9748 0.676 0.9748
1703754356.0999 0.511 0.245 0.9733 0.678 0.9733
1703754356.1071 0.512 0.246 0.9686 0.680 0.9686
1703754356.1139 0.513 0.248 0.9639 0.681 0.9639
1703754356.1217 0.514 0.249 0.9608 0.683 0.9608
1703754356.1283 0.515 0.251 0.9608 0.685 0.9608
