% Pose without folding and reset (log_20240202_162028.254/log_pose_abs.txt)
% 1 	Time (sec)
% 2,3 	Position x,y (m)
% 4 	heading (rad)
% 5 	Driven distance (m) - signed
% 6 	Turned angle (rad) - signed
1706887229.1831 0.000 0.000 0.0000 0.000 0.0000
1706887229.1904 0.000 0.000 0.0000 0.000 0.0000
1706887229.1980 -0.000 -0.000 0.0015 -0.000 0.0015
1706887229.2057 -0.000 -0.000 0.0015 -0.000 0.0015
1706887229.2138 0.000 0.000 0.0000 0.000 0.0000
1706887229.2218 0.000 0.000 0.0000 0.000 0.0000
1706887229.2305 0.000 0.000 0.0000 0.000 0.0000
1706887229.2380 0.000 0.000 0.0000 0.000 0.0000
1706887229.2458 0.000 0.000 0.0000 0.000 0.0000
1706887229.2545 0.000 0.000 0.0000 0.000 0.0000
1706887229.2626 0.000 0.000 0.0000 0.000 0.0000
1706887229.2697 0.000 0.000 0.0000 0.000 0.0000
1706887229.2785 0.000 0.000 0.0000 0.000 0.0000
1706887229.2867 0.000 0.000 0.0000 0.000 0.0000
1706887229.2941 0.000 0.000 0.0000 0.000 0.0000
1706887229.3016 0.000 0.000 0.0000 0.000 0.0000
1706887229.3107 0.000 0.000 0.0029 0.000 0.0029
1706887229.3177 0.001 0.000 0.0029 0.001 0.0029
1706887229.3265 0.002 0.000 0.0029 0.002 0.0029
1706887229.3344 0.003 0.000 0.0029 0.003 0.0029
1706887229.3421 0.004 0.000 0.0029 0.004 0.0029
1706887229.3498 0.005 0.000 0.0029 0.005 0.0029
1706887229.3579 0.006 0.000 0.0015 0.006 0.0015
1706887229.3661 0.007 0.000 0.0029 0.007 0.0029
1706887229.3737 0.009 0.000 0.0015 0.009 0.0015
1706887229.3816 0.011 0.000 0.0015 0.011 0.0015
1706887229.3904 0.013 0.000 0.0015 0.013 0.0015
1706887229.3981 0.015 0.000 0.0000 0.015 0.0000
1706887229.4062 0.017 0.000 0.0000 0.017 0.0000
1706887229.4144 0.020 0.000 0.0000 0.020 0.0000
1706887229.4229 0.022 0.000 0.0000 0.022 0.0000
1706887229.4300 0.024 0.000 -0.0015 0.024 -0.0015
1706887229.4389 0.027 0.000 0.0000 0.027 0.0000
1706887229.4466 0.029 0.000 0.0000 0.029 0.0000
1706887229.4537 0.032 0.000 0.0000 0.032 0.0000
1706887229.4618 0.034 0.000 -0.0015 0.034 -0.0015
1706887229.4704 0.036 0.000 -0.0029 0.036 -0.0029
1706887229.4785 0.039 0.000 -0.0015 0.039 -0.0015
1706887229.4867 0.042 0.000 0.0000 0.042 0.0000
1706887229.4939 0.044 0.000 -0.0029 0.044 -0.0029
1706887229.5021 0.046 0.000 -0.0029 0.046 -0.0029
1706887229.5103 0.048 -0.000 -0.0029 0.048 -0.0029
1706887229.5178 0.051 -0.000 -0.0015 0.051 -0.0015
1706887229.5259 0.054 -0.000 0.0015 0.054 0.0015
1706887229.5341 0.056 -0.000 0.0000 0.056 0.0000
1706887229.5426 0.058 -0.000 -0.0015 0.058 -0.0015
1706887229.5497 0.060 -0.000 0.0000 0.060 0.0000
1706887229.5577 0.063 -0.000 0.0015 0.063 0.0015
1706887229.5665 0.066 -0.000 0.0000 0.066 0.0000
1706887229.5746 0.068 -0.000 -0.0015 0.068 -0.0015
1706887229.5817 0.070 -0.000 0.0000 0.070 0.0000
1706887229.5900 0.073 -0.000 0.0029 0.073 0.0029
1706887229.5982 0.076 -0.000 0.0000 0.076 0.0000
1706887229.6062 0.078 -0.000 -0.0029 0.078 -0.0029
1706887229.6138 0.080 -0.000 -0.0015 0.080 -0.0015
1706887229.6220 0.082 -0.000 0.0000 0.082 0.0000
1706887229.6301 0.085 -0.000 -0.0015 0.085 -0.0015
1706887229.6390 0.087 -0.000 -0.0029 0.087 -0.0029
1706887229.6461 0.090 -0.000 -0.0015 0.090 -0.0015
1706887229.6541 0.092 -0.000 0.0000 0.092 0.0000
1706887229.6626 0.094 -0.000 0.0000 0.094 0.0000
1706887229.6699 0.097 -0.000 0.0000 0.097 0.0000
1706887229.6782 0.099 -0.000 0.0000 0.099 0.0000
1706887229.6861 0.102 -0.000 -0.0015 0.102 -0.0015
1706887229.6955 0.104 -0.000 -0.0029 0.104 -0.0029
1706887229.7026 0.106 -0.000 -0.0015 0.106 -0.0015
1706887229.7100 0.109 -0.000 0.0000 0.109 0.0000
1706887229.7182 0.111 -0.000 -0.0029 0.111 -0.0029
1706887229.7265 0.113 -0.000 -0.0044 0.113 -0.0044
1706887229.7340 0.115 -0.000 -0.0029 0.115 -0.0029
1706887229.7421 0.118 -0.000 -0.0015 0.118 -0.0015
1706887229.7503 0.121 -0.000 -0.0029 0.121 -0.0029
1706887229.7580 0.123 -0.000 -0.0044 0.123 -0.0044
1706887229.7661 0.125 -0.000 -0.0015 0.125 -0.0015
1706887229.7743 0.128 -0.000 -0.0015 0.128 -0.0015
1706887229.7829 0.130 -0.000 0.0000 0.130 0.0000
1706887229.7906 0.133 -0.000 0.0015 0.133 0.0015
1706887229.7977 0.135 -0.000 0.0000 0.135 0.0000
1706887229.8064 0.137 -0.000 0.0000 0.137 0.0000
1706887229.8146 0.139 -0.000 0.0029 0.139 0.0029
1706887229.8217 0.142 -0.000 0.0044 0.142 0.0044
1706887229.8302 0.145 -0.000 0.0015 0.145 0.0015
1706887229.8391 0.147 -0.000 -0.0015 0.147 -0.0015
1706887229.8462 0.149 -0.000 -0.0015 0.149 -0.0015
1706887229.8538 0.152 -0.000 0.0000 0.152 0.0000
1706887229.8620 0.154 -0.000 0.0015 0.154 0.0015
1706887229.8701 0.156 -0.000 -0.0015 0.156 -0.0015
1706887229.8787 0.158 -0.000 0.0000 0.158 0.0000
1706887229.8857 0.161 -0.000 0.0015 0.161 0.0015
1706887229.8945 0.164 -0.000 0.0029 0.164 0.0029
1706887229.9022 0.166 -0.000 0.0015 0.166 0.0015
1706887229.9104 0.168 -0.000 0.0000 0.168 0.0000
1706887229.9184 0.171 -0.000 -0.0015 0.171 -0.0015
1706887229.9260 0.173 -0.000 -0.0015 0.173 -0.0015
1706887229.9342 0.176 -0.000 0.0000 0.176 0.0000
1706887229.9419 0.178 -0.000 -0.0015 0.178 -0.0015
1706887229.9497 0.180 -0.000 -0.0015 0.180 -0.0015
1706887229.9579 0.183 -0.000 -0.0015 0.183 -0.0015
1706887229.9658 0.185 -0.000 -0.0015 0.185 -0.0015
1706887229.9746 0.187 -0.000 0.0000 0.187 0.0000
1706887229.9817 0.189 -0.000 0.0015 0.189 0.0015
1706887229.9905 0.192 -0.000 -0.0015 0.192 -0.0015
1706887229.9982 0.195 -0.000 0.0000 0.195 0.0000
1706887230.0063 0.197 -0.000 0.0000 0.197 0.0000
1706887230.0142 0.199 -0.000 0.0015 0.199 0.0015
1706887230.0219 0.201 -0.000 0.0015 0.201 0.0015
1706887230.0300 0.204 -0.000 0.0000 0.204 0.0000
1706887230.0388 0.207 -0.000 0.0000 0.207 0.0000
1706887230.0465 0.209 -0.000 -0.0015 0.209 -0.0015
1706887230.0544 0.211 -0.000 0.0015 0.211 0.0015
1706887230.0627 0.214 -0.000 0.0029 0.214 0.0029
1706887230.0703 0.216 -0.000 0.0000 0.216 0.0000
1706887230.0785 0.219 -0.000 -0.0029 0.219 -0.0029
1706887230.0867 0.221 -0.000 -0.0029 0.221 -0.0029
1706887230.0939 0.223 -0.000 0.0015 0.223 0.0015
1706887230.1018 0.226 -0.000 0.0015 0.226 0.0015
1706887230.1100 0.228 -0.000 -0.0029 0.228 -0.0029
1706887230.1177 0.231 -0.000 -0.0044 0.231 -0.0044
1706887230.1259 0.233 -0.000 -0.0015 0.233 -0.0015
1706887230.1341 0.235 -0.000 0.0015 0.235 0.0015
1706887230.1433 0.237 -0.000 -0.0015 0.237 -0.0015
1706887230.1503 0.240 -0.000 -0.0044 0.240 -0.0044
1706887230.1585 0.243 -0.000 -0.0029 0.243 -0.0029
1706887230.1661 0.245 -0.000 0.0000 0.245 0.0000
1706887230.1743 0.247 -0.000 0.0000 0.247 0.0000
1706887230.1822 0.249 -0.000 -0.0029 0.249 -0.0029
1706887230.1903 0.252 -0.000 -0.0029 0.252 -0.0029
1706887230.1985 0.255 -0.000 -0.0015 0.255 -0.0015
1706887230.2066 0.257 -0.000 0.0015 0.257 0.0015
1706887230.2143 0.259 -0.000 0.0000 0.259 0.0000
1706887230.2225 0.261 -0.000 -0.0044 0.261 -0.0044
1706887230.2307 0.264 -0.000 -0.0044 0.264 -0.0044
1706887230.2387 0.267 -0.000 0.0000 0.267 0.0000
1706887230.2458 0.269 -0.000 0.0015 0.269 0.0015
1706887230.2539 0.271 -0.000 0.0000 0.271 0.0000
1706887230.2617 0.274 -0.000 -0.0044 0.274 -0.0044
1706887230.2698 0.276 -0.000 -0.0044 0.276 -0.0044
1706887230.2778 0.279 -0.000 0.0000 0.279 0.0000
1706887230.2865 0.281 -0.000 0.0015 0.281 0.0015
1706887230.2942 0.283 -0.000 0.0000 0.283 0.0000
1706887230.3024 0.286 -0.000 -0.0029 0.286 -0.0029
1706887230.3100 0.289 -0.000 0.0000 0.289 0.0000
1706887230.3182 0.291 -0.000 0.0000 0.291 0.0000
1706887230.3261 0.293 -0.000 0.0000 0.293 0.0000
1706887230.3338 0.295 -0.000 0.0000 0.295 0.0000
1706887230.3427 0.298 -0.000 -0.0015 0.298 -0.0015
1706887230.3499 0.300 -0.000 -0.0015 0.300 -0.0015
1706887230.3586 0.302 -0.000 -0.0015 0.302 -0.0015
1706887230.3657 0.303 -0.000 0.0000 0.303 0.0000
1706887230.3747 0.304 -0.000 0.0000 0.304 0.0000
1706887230.3824 0.304 -0.000 -0.0015 0.304 -0.0015
1706887230.3901 0.305 -0.000 0.0000 0.305 0.0000
1706887230.3983 0.306 -0.000 0.0000 0.306 0.0000
1706887230.4060 0.307 -0.000 -0.0015 0.307 -0.0015
1706887230.4140 0.307 -0.000 -0.0029 0.307 -0.0029
1706887230.4222 0.308 -0.000 -0.0015 0.308 -0.0015
1706887230.4298 0.309 -0.000 0.0000 0.309 0.0000
1706887230.4386 0.309 -0.000 0.0015 0.309 0.0015
1706887230.4467 0.310 -0.000 0.0044 0.310 0.0044
1706887230.4545 0.310 -0.000 0.0073 0.310 0.0073
1706887230.4625 0.310 -0.000 0.0073 0.310 0.0073
1706887230.4707 0.311 -0.000 0.0073 0.311 0.0073
1706887230.4784 0.311 -0.000 0.0088 0.311 0.0088
1706887230.4865 0.311 -0.000 0.0088 0.311 0.0088
1706887230.4942 0.311 -0.000 0.0088 0.311 0.0088
1706887230.5028 0.312 -0.000 0.0117 0.312 0.0117
1706887230.5099 0.312 -0.000 0.0146 0.312 0.0146
1706887230.5180 0.312 -0.000 0.0205 0.312 0.0205
1706887230.5257 0.312 -0.000 0.0248 0.312 0.0248
1706887230.5339 0.312 -0.000 0.0263 0.312 0.0263
1706887230.5423 0.312 -0.000 0.0292 0.312 0.0292
1706887230.5500 0.312 -0.000 0.0321 0.312 0.0321
1706887230.5581 0.312 -0.000 0.0351 0.312 0.0351
1706887230.5663 0.312 -0.000 0.0394 0.312 0.0394
1706887230.5740 0.312 -0.000 0.0424 0.312 0.0424
1706887230.5823 0.312 -0.000 0.0453 0.312 0.0453
1706887230.5900 0.312 -0.000 0.0511 0.312 0.0511
1706887230.5986 0.311 -0.000 0.0555 0.311 0.0555
1706887230.6057 0.311 -0.000 0.0614 0.311 0.0614
1706887230.6139 0.312 -0.000 0.0657 0.312 0.0657
1706887230.6217 0.312 -0.000 0.0701 0.312 0.0701
1706887230.6298 0.312 -0.000 0.0760 0.312 0.0760
1706887230.6384 0.312 -0.000 0.0833 0.312 0.0833
1706887230.6461 0.312 -0.000 0.0877 0.312 0.0877
1706887230.6542 0.312 -0.000 0.0906 0.312 0.0906
1706887230.6624 0.312 -0.000 0.0950 0.312 0.0950
1706887230.6701 0.312 -0.000 0.1008 0.312 0.1008
1706887230.6782 0.312 -0.000 0.1096 0.312 0.1096
1706887230.6858 0.312 -0.000 0.1110 0.312 0.1110
1706887230.6942 0.312 -0.000 0.1140 0.312 0.1140
1706887230.7024 0.312 -0.000 0.1198 0.312 0.1198
1706887230.7106 0.312 -0.000 0.1256 0.312 0.1256
1706887230.7183 0.313 -0.000 0.1329 0.313 0.1329
1706887230.7265 0.313 -0.000 0.1359 0.313 0.1359
1706887230.7344 0.313 -0.000 0.1388 0.313 0.1388
1706887230.7419 0.313 -0.000 0.1417 0.313 0.1417
1706887230.7501 0.313 -0.000 0.1476 0.313 0.1476
1706887230.7583 0.313 -0.000 0.1534 0.313 0.1534
1706887230.7659 0.313 -0.000 0.1549 0.313 0.1549
1706887230.7738 0.313 -0.000 0.1578 0.313 0.1578
1706887230.7820 0.313 -0.000 0.1607 0.313 0.1607
1706887230.7904 0.313 -0.000 0.1680 0.313 0.1680
1706887230.7985 0.313 -0.000 0.1709 0.313 0.1709
1706887230.8067 0.313 -0.000 0.1724 0.313 0.1724
1706887230.8145 0.313 -0.000 0.1782 0.313 0.1782
1706887230.8226 0.313 0.000 0.1841 0.313 0.1841
1706887230.8298 0.313 0.000 0.1899 0.313 0.1899
1706887230.8392 0.313 -0.000 0.1928 0.313 0.1928
1706887230.8463 0.313 -0.000 0.1958 0.313 0.1958
1706887230.8545 0.313 -0.000 0.2001 0.313 0.2001
1706887230.8632 0.313 -0.000 0.2060 0.313 0.2060
1706887230.8703 0.313 -0.000 0.2075 0.313 0.2075
1706887230.8785 0.313 -0.000 0.2089 0.313 0.2089
1706887230.8862 0.313 -0.000 0.2148 0.313 0.2148
1706887230.8939 0.313 -0.000 0.2206 0.313 0.2206
1706887230.9021 0.313 -0.000 0.2264 0.313 0.2264
1706887230.9106 0.313 -0.000 0.2294 0.313 0.2294
1706887230.9177 0.312 -0.000 0.2308 0.312 0.2308
1706887230.9259 0.312 -0.000 0.2338 0.312 0.2338
1706887230.9347 0.313 -0.000 0.2411 0.313 0.2411
1706887230.9425 0.313 -0.000 0.2484 0.313 0.2484
1706887230.9497 0.313 -0.000 0.2498 0.313 0.2498
1706887230.9582 0.313 -0.000 0.2527 0.313 0.2527
1706887230.9664 0.312 -0.000 0.2571 0.312 0.2571
1706887230.9746 0.313 -0.000 0.2644 0.313 0.2644
1706887230.9823 0.313 -0.000 0.2703 0.313 0.2703
1706887230.9900 0.312 -0.000 0.2717 0.312 0.2717
1706887230.9980 0.312 -0.000 0.2732 0.312 0.2732
1706887231.0057 0.312 -0.000 0.2761 0.312 0.2761
1706887231.0139 0.312 -0.000 0.2820 0.312 0.2820
1706887231.0221 0.313 -0.000 0.2907 0.313 0.2907
1706887231.0297 0.313 -0.000 0.2936 0.313 0.2937
1706887231.0385 0.313 -0.000 0.2966 0.313 0.2966
1706887231.0465 0.312 -0.000 0.2995 0.312 0.2995
1706887231.0542 0.312 -0.000 0.3039 0.312 0.3039
1706887231.0624 0.312 -0.000 0.3083 0.312 0.3083
1706887231.0707 0.312 -0.000 0.3126 0.312 0.3126
1706887231.0784 0.312 -0.000 0.3141 0.312 0.3141
1706887231.0865 0.312 -0.000 0.3170 0.312 0.3170
1706887231.0940 0.312 -0.000 0.3214 0.312 0.3214
1706887231.1018 0.312 -0.000 0.3258 0.312 0.3258
1706887231.1099 0.312 -0.000 0.3287 0.312 0.3287
1706887231.1182 0.312 -0.000 0.3316 0.312 0.3316
1706887231.1259 0.312 -0.000 0.3346 0.312 0.3346
1706887231.1339 0.312 -0.000 0.3389 0.312 0.3389
1706887231.1417 0.312 -0.000 0.3462 0.312 0.3462
1706887231.1505 0.312 -0.000 0.3506 0.312 0.3506
1706887231.1586 0.312 -0.000 0.3521 0.312 0.3521
1706887231.1657 0.312 -0.000 0.3550 0.312 0.3550
1706887231.1744 0.311 -0.000 0.3594 0.311 0.3594
1706887231.1821 0.312 -0.000 0.3623 0.312 0.3623
1706887231.1899 0.312 -0.000 0.3682 0.312 0.3682
1706887231.1987 0.312 -0.000 0.3711 0.312 0.3711
1706887231.2058 0.312 -0.000 0.3725 0.312 0.3725
1706887231.2140 0.312 -0.000 0.3784 0.312 0.3784
1706887231.2227 0.312 -0.000 0.3857 0.312 0.3857
1706887231.2299 0.312 -0.000 0.3915 0.312 0.3915
1706887231.2387 0.312 -0.000 0.3930 0.312 0.3930
1706887231.2464 0.311 -0.001 0.3974 0.311 0.3974
1706887231.2546 0.311 -0.001 0.4032 0.311 0.4032
1706887231.2618 0.312 -0.000 0.4061 0.312 0.4061
1706887231.2704 0.312 -0.000 0.4105 0.312 0.4105
1706887231.2786 0.312 -0.000 0.4120 0.312 0.4120
1706887231.2857 0.312 -0.000 0.4164 0.312 0.4164
1706887231.2940 0.311 -0.001 0.4222 0.311 0.4222
1706887231.3022 0.312 -0.000 0.4266 0.312 0.4266
1706887231.3105 0.312 -0.000 0.4310 0.312 0.4310
1706887231.3180 0.312 -0.000 0.4324 0.312 0.4324
1706887231.3263 0.312 -0.000 0.4354 0.312 0.4354
1706887231.3345 0.311 -0.001 0.4412 0.311 0.4412
1706887231.3418 0.311 -0.001 0.4441 0.311 0.4441
1706887231.3500 0.312 -0.000 0.4485 0.312 0.4485
1706887231.3580 0.312 -0.000 0.4514 0.312 0.4514
1706887231.3657 0.312 -0.000 0.4529 0.312 0.4529
1706887231.3738 0.312 -0.000 0.4587 0.312 0.4587
1706887231.3820 0.312 -0.000 0.4646 0.312 0.4646
1706887231.3904 0.312 -0.000 0.4690 0.312 0.4690
1706887231.3986 0.312 -0.000 0.4704 0.312 0.4704
1706887231.4066 0.312 -0.000 0.4719 0.312 0.4719
1706887231.4143 0.312 -0.000 0.4777 0.312 0.4777
1706887231.4225 0.312 -0.000 0.4821 0.312 0.4821
1706887231.4297 0.312 -0.000 0.4880 0.312 0.4880
1706887231.4392 0.312 -0.000 0.4923 0.312 0.4923
1706887231.4463 0.312 -0.000 0.4938 0.312 0.4938
1706887231.4543 0.312 -0.000 0.4982 0.312 0.4982
1706887231.4620 0.312 -0.000 0.5040 0.312 0.5040
1706887231.4702 0.312 -0.000 0.5084 0.312 0.5084
1706887231.4785 0.312 -0.000 0.5113 0.312 0.5113
1706887231.4862 0.311 -0.001 0.5143 0.311 0.5143
1706887231.4937 0.311 -0.001 0.5201 0.311 0.5201
1706887231.5020 0.311 -0.001 0.5230 0.311 0.5230
1706887231.5098 0.312 -0.000 0.5274 0.312 0.5274
1706887231.5183 0.312 -0.000 0.5303 0.312 0.5303
1706887231.5265 0.311 -0.001 0.5347 0.311 0.5347
1706887231.5342 0.311 -0.001 0.5405 0.311 0.5405
1706887231.5418 0.312 -0.000 0.5449 0.312 0.5449
1706887231.5502 0.312 -0.000 0.5479 0.312 0.5479
1706887231.5579 0.312 -0.000 0.5508 0.312 0.5508
1706887231.5661 0.312 -0.000 0.5537 0.312 0.5537
1706887231.5743 0.311 -0.001 0.5595 0.311 0.5595
1706887231.5829 0.311 -0.001 0.5610 0.311 0.5610
1706887231.5897 0.312 -0.000 0.5639 0.312 0.5639
1706887231.5979 0.312 -0.000 0.5712 0.312 0.5712
1706887231.6067 0.312 -0.000 0.5742 0.312 0.5742
1706887231.6138 0.312 -0.000 0.5771 0.312 0.5771
1706887231.6220 0.311 -0.001 0.5815 0.311 0.5815
1706887231.6306 0.312 -0.000 0.5844 0.312 0.5844
1706887231.6384 0.312 -0.000 0.5888 0.312 0.5888
1706887231.6467 0.312 -0.000 0.5917 0.312 0.5917
1706887231.6543 0.311 -0.001 0.5961 0.311 0.5961
1706887231.6625 0.311 -0.001 0.5975 0.311 0.5975
1706887231.6697 0.311 -0.001 0.6019 0.311 0.6019
1706887231.6783 0.312 -0.000 0.6078 0.312 0.6078
1706887231.6861 0.311 -0.001 0.6136 0.311 0.6136
1706887231.6939 0.311 -0.001 0.6151 0.311 0.6151
1706887231.7027 0.311 -0.001 0.6180 0.311 0.6180
1706887231.7099 0.311 -0.001 0.6253 0.311 0.6253
1706887231.7179 0.311 -0.001 0.6311 0.311 0.6311
1706887231.7267 0.311 -0.001 0.6355 0.311 0.6355
1706887231.7338 0.311 -0.001 0.6370 0.311 0.6370
1706887231.7427 0.311 -0.001 0.6414 0.311 0.6414
1706887231.7505 0.311 -0.001 0.6472 0.311 0.6472
1706887231.7587 0.311 -0.001 0.6530 0.311 0.6530
1706887231.7667 0.311 -0.001 0.6545 0.311 0.6545
1706887231.7744 0.311 -0.001 0.6589 0.311 0.6589
1706887231.7826 0.311 -0.001 0.6633 0.311 0.6633
1706887231.7905 0.311 -0.001 0.6706 0.311 0.6706
1706887231.7983 0.311 -0.001 0.6764 0.311 0.6764
1706887231.8064 0.311 -0.001 0.6779 0.311 0.6779
1706887231.8144 0.311 -0.001 0.6793 0.311 0.6793
1706887231.8221 0.311 -0.001 0.6837 0.311 0.6837
1706887231.8303 0.311 -0.001 0.6910 0.311 0.6910
1706887231.8391 0.311 -0.001 0.6983 0.311 0.6983
1706887231.8458 0.311 -0.001 0.6983 0.311 0.6983
1706887231.8537 0.311 -0.001 0.6998 0.311 0.6998
1706887231.8620 0.311 -0.001 0.7013 0.311 0.7013
1706887231.8697 0.311 -0.001 0.7071 0.311 0.7071
1706887231.8779 0.311 -0.001 0.7144 0.311 0.7144
1706887231.8860 0.311 -0.001 0.7188 0.311 0.7188
1706887231.8943 0.311 -0.001 0.7202 0.311 0.7202
1706887231.9024 0.311 -0.001 0.7217 0.311 0.7217
1706887231.9107 0.311 -0.001 0.7276 0.311 0.7276
1706887231.9185 0.311 -0.001 0.7334 0.311 0.7334
1706887231.9266 0.311 -0.001 0.7392 0.311 0.7392
1706887231.9337 0.312 -0.000 0.7407 0.312 0.7407
1706887231.9429 0.311 -0.001 0.7422 0.311 0.7422
1706887231.9501 0.311 -0.001 0.7451 0.311 0.7451
1706887231.9583 0.311 -0.001 0.7524 0.311 0.7524
1706887231.9660 0.311 -0.001 0.7553 0.311 0.7553
1706887231.9742 0.312 -0.000 0.7612 0.312 0.7612
1706887231.9824 0.312 -0.000 0.7670 0.312 0.7670
1706887231.9906 0.311 -0.001 0.7699 0.311 0.7699
1706887231.9987 0.311 -0.001 0.7699 0.311 0.7699
1706887232.0058 0.311 -0.001 0.7728 0.311 0.7728
1706887232.0145 0.311 -0.001 0.7801 0.311 0.7801
1706887232.0227 0.311 -0.001 0.7889 0.311 0.7889
1706887232.0299 0.312 -0.000 0.7904 0.312 0.7904
1706887232.0391 0.312 -0.000 0.7904 0.312 0.7904
1706887232.0462 0.311 -0.001 0.7948 0.311 0.7948
1706887232.0544 0.311 -0.001 0.8006 0.311 0.8006
1706887232.0622 0.311 -0.001 0.8064 0.311 0.8064
1706887232.0704 0.312 -0.000 0.8094 0.312 0.8094
1706887232.0783 0.312 -0.000 0.8108 0.312 0.8108
1706887232.0861 0.311 -0.001 0.8152 0.311 0.8152
1706887232.0938 0.311 -0.001 0.8196 0.311 0.8196
1706887232.1020 0.312 -0.000 0.8254 0.312 0.8254
1706887232.1098 0.312 0.000 0.8298 0.312 0.8298
1706887232.1180 0.312 0.000 0.8327 0.312 0.8327
1706887232.1259 0.312 -0.000 0.8357 0.312 0.8357
1706887232.1347 0.311 -0.001 0.8400 0.311 0.8400
1706887232.1425 0.311 -0.001 0.8430 0.311 0.8430
1706887232.1497 0.312 -0.000 0.8459 0.312 0.8459
1706887232.1586 0.312 -0.000 0.8488 0.312 0.8488
1706887232.1667 0.311 -0.001 0.8532 0.311 0.8532
1706887232.1747 0.311 -0.001 0.8576 0.311 0.8576
1706887232.1820 0.312 -0.000 0.8634 0.312 0.8634
1706887232.1898 0.312 -0.000 0.8663 0.312 0.8663
1706887232.1980 0.312 -0.000 0.8693 0.312 0.8693
1706887232.2057 0.312 -0.000 0.8722 0.312 0.8722
1706887232.2147 0.311 -0.001 0.8766 0.311 0.8766
1706887232.2218 0.312 -0.000 0.8824 0.312 0.8824
1706887232.2307 0.312 -0.000 0.8868 0.312 0.8868
1706887232.2384 0.312 -0.000 0.8897 0.312 0.8897
1706887232.2466 0.311 -0.001 0.8941 0.311 0.8941
1706887232.2543 0.311 -0.001 0.8985 0.311 0.8985
1706887232.2624 0.312 -0.000 0.9014 0.312 0.9014
1706887232.2706 0.312 -0.000 0.9043 0.312 0.9043
1706887232.2784 0.312 -0.000 0.9072 0.312 0.9072
1706887232.2866 0.311 -0.001 0.9116 0.311 0.9116
1706887232.2943 0.311 -0.001 0.9175 0.311 0.9175
1706887232.3029 0.311 -0.001 0.9189 0.311 0.9189
1706887232.3101 0.312 -0.000 0.9233 0.312 0.9233
1706887232.3183 0.312 0.000 0.9292 0.312 0.9292
1706887232.3260 0.312 -0.000 0.9335 0.312 0.9335
1706887232.3342 0.311 -0.001 0.9394 0.311 0.9394
1706887232.3419 0.311 -0.001 0.9408 0.311 0.9408
1706887232.3506 0.312 -0.000 0.9438 0.312 0.9438
1706887232.3577 0.312 0.000 0.9496 0.312 0.9496
1706887232.3659 0.312 -0.000 0.9525 0.312 0.9525
1706887232.3746 0.311 -0.001 0.9569 0.311 0.9569
1706887232.3827 0.311 -0.001 0.9598 0.311 0.9598
1706887232.3906 0.312 -0.000 0.9642 0.312 0.9642
