% Pose without folding and reset (log_20231228_085832.261/log_pose_abs.txt)
% 1 	Time (sec)
% 2,3 	Position x,y (m)
% 4 	heading (rad)
% 5 	Driven distance (m) - signed
% 6 	Turned angle (rad) - signed
1703750312.3358 0.000 0.000 0.0000 0.000 0.0000
1703750312.3419 0.000 0.000 0.0000 0.000 0.0000
1703750312.3497 -0.000 -0.000 0.0016 -0.000 0.0016
1703750312.3567 -0.000 -0.000 0.0016 -0.000 0.0016
1703750312.3632 0.000 0.000 0.0000 0.000 0.0000
1703750312.3701 0.000 0.000 0.0000 0.000 0.0000
1703750312.3767 0.001 -0.000 -0.0031 0.001 -0.0031
1703750312.3837 0.002 -0.000 -0.0031 0.002 -0.0031
1703750312.3917 0.003 -0.000 0.0000 0.003 0.0000
1703750312.3982 0.003 -0.000 0.0000 0.003 0.0000
1703750312.4055 0.003 -0.000 -0.0016 0.003 -0.0016
1703750312.4117 0.004 -0.000 -0.0016 0.004 -0.0016
1703750312.4194 0.005 -0.000 0.0000 0.005 0.0000
1703750312.4264 0.006 -0.000 -0.0031 0.006 -0.0031
1703750312.4331 0.007 -0.000 -0.0031 0.007 -0.0031
1703750312.4401 0.008 -0.000 -0.0031 0.008 -0.0031
1703750312.4472 0.009 -0.000 -0.0047 0.009 -0.0047
1703750312.4538 0.010 -0.000 -0.0062 0.010 -0.0062
1703750312.4618 0.012 -0.000 -0.0078 0.012 -0.0078
1703750312.4683 0.013 -0.000 -0.0078 0.013 -0.0078
1703750312.4752 0.015 -0.000 -0.0093 0.015 -0.0093
1703750312.4822 0.017 -0.000 -0.0124 0.017 -0.0124
1703750312.4890 0.018 -0.000 -0.0140 0.018 -0.0140
1703750312.4961 0.020 -0.000 -0.0140 0.020 -0.0140
1703750312.5027 0.022 -0.000 -0.0186 0.022 -0.0186
1703750312.5096 0.024 -0.000 -0.0217 0.024 -0.0217
1703750312.5175 0.025 -0.000 -0.0233 0.025 -0.0233
1703750312.5244 0.028 -0.000 -0.0233 0.028 -0.0233
1703750312.5313 0.030 -0.000 -0.0264 0.030 -0.0264
1703750312.5390 0.031 -0.000 -0.0295 0.031 -0.0295
1703750312.5461 0.033 -0.000 -0.0341 0.033 -0.0341
1703750312.5527 0.035 -0.001 -0.0357 0.035 -0.0357
1703750312.5596 0.037 -0.001 -0.0373 0.037 -0.0373
1703750312.5664 0.039 -0.001 -0.0404 0.039 -0.0404
1703750312.5734 0.041 -0.001 -0.0419 0.041 -0.0419
1703750312.5802 0.043 -0.001 -0.0435 0.043 -0.0435
1703750312.5879 0.044 -0.001 -0.0435 0.045 -0.0435
1703750312.5950 0.047 -0.001 -0.0450 0.047 -0.0450
1703750312.6018 0.048 -0.001 -0.0481 0.048 -0.0481
1703750312.6086 0.050 -0.001 -0.0512 0.050 -0.0512
1703750312.6157 0.052 -0.001 -0.0512 0.052 -0.0512
1703750312.6223 0.054 -0.001 -0.0512 0.054 -0.0512
1703750312.6293 0.055 -0.001 -0.0528 0.055 -0.0528
1703750312.6369 0.057 -0.002 -0.0543 0.058 -0.0543
1703750312.6440 0.059 -0.002 -0.0543 0.059 -0.0543
1703750312.6508 0.061 -0.002 -0.0528 0.061 -0.0528
1703750312.6575 0.063 -0.002 -0.0528 0.063 -0.0528
1703750312.6647 0.065 -0.002 -0.0543 0.065 -0.0543
1703750312.6713 0.066 -0.002 -0.0528 0.066 -0.0528
1703750312.6783 0.068 -0.002 -0.0528 0.068 -0.0528
1703750312.6861 0.070 -0.002 -0.0512 0.070 -0.0512
1703750312.6929 0.072 -0.002 -0.0497 0.072 -0.0497
1703750312.6999 0.073 -0.002 -0.0481 0.073 -0.0481
1703750312.7067 0.075 -0.002 -0.0466 0.075 -0.0466
1703750312.7136 0.077 -0.003 -0.0450 0.077 -0.0450
1703750312.7203 0.079 -0.003 -0.0419 0.079 -0.0419
1703750312.7272 0.080 -0.003 -0.0404 0.080 -0.0404
1703750312.7350 0.082 -0.003 -0.0373 0.082 -0.0373
1703750312.7418 0.084 -0.003 -0.0341 0.084 -0.0341
1703750312.7488 0.085 -0.003 -0.0326 0.085 -0.0326
1703750312.7556 0.087 -0.003 -0.0310 0.087 -0.0310
1703750312.7625 0.089 -0.003 -0.0264 0.089 -0.0264
1703750312.7693 0.091 -0.003 -0.0233 0.091 -0.0233
1703750312.7762 0.092 -0.003 -0.0217 0.092 -0.0217
1703750312.7842 0.094 -0.003 -0.0202 0.094 -0.0202
1703750312.7908 0.096 -0.003 -0.0155 0.096 -0.0155
1703750312.7981 0.098 -0.003 -0.0124 0.098 -0.0124
1703750312.8046 0.099 -0.003 -0.0109 0.099 -0.0109
1703750312.8115 0.101 -0.003 -0.0093 0.101 -0.0093
1703750312.8183 0.103 -0.003 -0.0062 0.103 -0.0062
1703750312.8252 0.105 -0.003 -0.0016 0.105 -0.0016
1703750312.8332 0.106 -0.003 0.0000 0.106 -0.0000
1703750312.8400 0.108 -0.003 0.0016 0.108 0.0016
1703750312.8471 0.110 -0.003 0.0031 0.110 0.0031
1703750312.8539 0.112 -0.003 0.0078 0.112 0.0078
1703750312.8605 0.113 -0.003 0.0093 0.114 0.0093
1703750312.8675 0.115 -0.003 0.0109 0.115 0.0109
1703750312.8752 0.117 -0.003 0.0124 0.117 0.0124
1703750312.8821 0.119 -0.003 0.0155 0.119 0.0155
1703750312.8890 0.121 -0.003 0.0171 0.121 0.0171
1703750312.8961 0.122 -0.003 0.0171 0.122 0.0171
1703750312.9028 0.124 -0.003 0.0186 0.124 0.0186
1703750312.9096 0.126 -0.003 0.0202 0.126 0.0202
1703750312.9164 0.128 -0.003 0.0233 0.128 0.0233
1703750312.9241 0.129 -0.003 0.0217 0.129 0.0217
1703750312.9304 0.131 -0.003 0.0217 0.131 0.0217
1703750312.9372 0.133 -0.003 0.0233 0.133 0.0233
1703750312.9442 0.135 -0.003 0.0248 0.135 0.0248
1703750312.9522 0.136 -0.003 0.0248 0.136 0.0248
1703750312.9588 0.138 -0.003 0.0248 0.138 0.0248
1703750312.9657 0.140 -0.003 0.0248 0.140 0.0248
1703750312.9722 0.142 -0.003 0.0264 0.142 0.0264
1703750312.9794 0.143 -0.003 0.0279 0.143 0.0279
1703750312.9873 0.145 -0.003 0.0264 0.145 0.0264
1703750312.9932 0.147 -0.002 0.0248 0.147 0.0248
1703750313.0003 0.148 -0.002 0.0264 0.148 0.0264
1703750313.0081 0.150 -0.002 0.0279 0.150 0.0279
1703750313.0151 0.151 -0.002 0.0264 0.151 0.0264
1703750313.0221 0.153 -0.002 0.0264 0.153 0.0264
1703750313.0288 0.155 -0.002 0.0279 0.155 0.0279
1703750313.0357 0.157 -0.002 0.0264 0.157 0.0264
1703750313.0425 0.159 -0.002 0.0233 0.159 0.0233
1703750313.0495 0.160 -0.002 0.0233 0.160 0.0233
1703750313.0572 0.162 -0.002 0.0217 0.162 0.0217
1703750313.0640 0.164 -0.002 0.0233 0.164 0.0233
1703750313.0710 0.166 -0.002 0.0217 0.166 0.0217
1703750313.0778 0.167 -0.002 0.0186 0.167 0.0186
1703750313.0846 0.169 -0.002 0.0171 0.169 0.0171
1703750313.0913 0.171 -0.002 0.0171 0.171 0.0171
1703750313.0983 0.172 -0.002 0.0155 0.172 0.0155
1703750313.1062 0.174 -0.002 0.0124 0.174 0.0124
1703750313.1131 0.176 -0.002 0.0124 0.176 0.0124
1703750313.1201 0.178 -0.002 0.0109 0.178 0.0109
1703750313.1267 0.179 -0.002 0.0093 0.180 0.0093
1703750313.1337 0.181 -0.002 0.0062 0.181 0.0062
1703750313.1402 0.183 -0.002 0.0062 0.183 0.0062
1703750313.1473 0.185 -0.002 0.0031 0.185 0.0031
1703750313.1543 0.186 -0.002 0.0000 0.186 0.0000
1703750313.1621 0.188 -0.002 -0.0031 0.188 -0.0031
1703750313.1690 0.190 -0.002 -0.0031 0.190 -0.0031
1703750313.1756 0.192 -0.002 -0.0047 0.192 -0.0047
1703750313.1826 0.194 -0.002 -0.0062 0.194 -0.0062
1703750313.1894 0.195 -0.002 -0.0078 0.196 -0.0078
1703750313.1962 0.197 -0.002 -0.0078 0.197 -0.0078
1703750313.2033 0.199 -0.002 -0.0109 0.199 -0.0109
1703750313.2110 0.201 -0.002 -0.0124 0.201 -0.0124
1703750313.2179 0.202 -0.002 -0.0124 0.203 -0.0124
1703750313.2246 0.204 -0.002 -0.0124 0.204 -0.0124
1703750313.2315 0.206 -0.002 -0.0124 0.206 -0.0124
1703750313.2383 0.208 -0.002 -0.0155 0.208 -0.0155
1703750313.2454 0.209 -0.002 -0.0155 0.209 -0.0155
1703750313.2522 0.211 -0.002 -0.0140 0.211 -0.0140
1703750313.2599 0.213 -0.002 -0.0140 0.213 -0.0140
1703750313.2669 0.215 -0.002 -0.0155 0.215 -0.0155
1703750313.2737 0.217 -0.002 -0.0171 0.217 -0.0171
1703750313.2805 0.218 -0.002 -0.0140 0.218 -0.0140
1703750313.2874 0.220 -0.002 -0.0140 0.220 -0.0140
1703750313.2944 0.222 -0.002 -0.0140 0.222 -0.0140
1703750313.3013 0.223 -0.002 -0.0140 0.223 -0.0140
1703750313.3089 0.225 -0.002 -0.0124 0.225 -0.0124
1703750313.3158 0.227 -0.002 -0.0124 0.227 -0.0124
1703750313.3228 0.228 -0.002 -0.0109 0.228 -0.0109
1703750313.3296 0.230 -0.002 -0.0093 0.230 -0.0093
1703750313.3367 0.232 -0.002 -0.0093 0.232 -0.0093
1703750313.3435 0.234 -0.002 -0.0109 0.234 -0.0109
1703750313.3505 0.235 -0.002 -0.0078 0.236 -0.0078
1703750313.3584 0.237 -0.002 -0.0047 0.237 -0.0047
1703750313.3650 0.239 -0.002 -0.0031 0.239 -0.0031
1703750313.3720 0.241 -0.002 -0.0031 0.241 -0.0031
1703750313.3786 0.243 -0.002 -0.0016 0.243 -0.0016
1703750313.3857 0.244 -0.002 0.0016 0.244 0.0016
1703750313.3925 0.246 -0.002 0.0047 0.246 0.0047
1703750313.3995 0.248 -0.002 0.0047 0.248 0.0047
1703750313.4063 0.250 -0.002 0.0062 0.250 0.0062
1703750313.4141 0.251 -0.002 0.0109 0.251 0.0109
1703750313.4209 0.253 -0.002 0.0124 0.253 0.0124
1703750313.4278 0.255 -0.002 0.0140 0.255 0.0140
1703750313.4347 0.257 -0.002 0.0171 0.257 0.0171
1703750313.4415 0.258 -0.002 0.0186 0.258 0.0186
1703750313.4484 0.260 -0.002 0.0217 0.260 0.0217
1703750313.4553 0.262 -0.002 0.0248 0.262 0.0248
1703750313.4630 0.264 -0.002 0.0264 0.264 0.0264
1703750313.4702 0.265 -0.002 0.0279 0.266 0.0279
1703750313.4767 0.267 -0.002 0.0295 0.267 0.0295
1703750313.4836 0.269 -0.002 0.0341 0.269 0.0341
1703750313.4904 0.270 -0.002 0.0373 0.270 0.0373
1703750313.4974 0.272 -0.002 0.0373 0.272 0.0373
1703750313.5043 0.274 -0.002 0.0373 0.274 0.0373
1703750313.5120 0.276 -0.002 0.0388 0.276 0.0388
1703750313.5192 0.278 -0.002 0.0419 0.278 0.0419
1703750313.5260 0.280 -0.001 0.0435 0.280 0.0435
1703750313.5326 0.281 -0.001 0.0435 0.281 0.0435
1703750313.5396 0.283 -0.001 0.0435 0.283 0.0435
1703750313.5464 0.285 -0.001 0.0466 0.285 0.0466
1703750313.5533 0.286 -0.001 0.0481 0.286 0.0481
1703750313.5602 0.288 -0.001 0.0466 0.288 0.0466
1703750313.5682 0.290 -0.001 0.0481 0.290 0.0481
1703750313.5749 0.292 -0.001 0.0497 0.292 0.0497
1703750313.5817 0.294 -0.001 0.0512 0.294 0.0512
1703750313.5886 0.295 -0.001 0.0512 0.296 0.0512
1703750313.5954 0.297 -0.001 0.0481 0.297 0.0481
1703750313.6023 0.298 -0.001 0.0481 0.299 0.0481
1703750313.6093 0.300 -0.001 0.0497 0.300 0.0497
1703750313.6171 0.302 -0.000 0.0497 0.303 0.0497
1703750313.6241 0.304 -0.000 0.0497 0.304 0.0497
1703750313.6307 0.305 -0.000 0.0497 0.306 0.0497
1703750313.6376 0.307 -0.000 0.0497 0.307 0.0497
1703750313.6444 0.309 -0.000 0.0481 0.309 0.0481
1703750313.6515 0.311 0.000 0.0497 0.311 0.0497
1703750313.6583 0.312 0.000 0.0481 0.313 0.0481
1703750313.6662 0.314 0.000 0.0466 0.314 0.0466
1703750313.6732 0.316 0.000 0.0466 0.316 0.0466
1703750313.6798 0.318 0.000 0.0450 0.318 0.0450
1703750313.6868 0.320 0.000 0.0450 0.320 0.0450
1703750313.6937 0.321 0.001 0.0435 0.321 0.0435
1703750313.7006 0.323 0.001 0.0404 0.323 0.0404
1703750313.7075 0.324 0.001 0.0388 0.325 0.0388
1703750313.7142 0.326 0.001 0.0388 0.326 0.0388
1703750313.7222 0.328 0.001 0.0388 0.328 0.0388
1703750313.7288 0.330 0.001 0.0341 0.330 0.0341
1703750313.7357 0.332 0.001 0.0326 0.332 0.0326
1703750313.7429 0.333 0.001 0.0326 0.334 0.0326
1703750313.7496 0.335 0.001 0.0310 0.335 0.0310
1703750313.7564 0.337 0.001 0.0279 0.337 0.0279
1703750313.7642 0.339 0.001 0.0248 0.339 0.0248
1703750313.7712 0.341 0.001 0.0233 0.341 0.0233
1703750313.7780 0.342 0.001 0.0202 0.342 0.0202
1703750313.7849 0.344 0.001 0.0186 0.344 0.0186
1703750313.7919 0.346 0.001 0.0171 0.346 0.0171
1703750313.7987 0.348 0.001 0.0171 0.348 0.0171
1703750313.8056 0.349 0.001 0.0140 0.349 0.0140
1703750313.8132 0.351 0.001 0.0109 0.351 0.0109
1703750313.8193 0.353 0.001 0.0109 0.353 0.0109
1703750313.8271 0.354 0.001 0.0093 0.355 0.0093
1703750313.8341 0.356 0.001 0.0109 0.356 0.0109
1703750313.8411 0.358 0.001 0.0093 0.358 0.0093
1703750313.8479 0.360 0.001 0.0062 0.360 0.0062
1703750313.8548 0.361 0.001 0.0047 0.362 0.0047
1703750313.8616 0.363 0.001 0.0047 0.363 0.0047
1703750313.8682 0.365 0.001 0.0062 0.365 0.0062
1703750313.8754 0.367 0.001 0.0062 0.367 0.0062
1703750313.8831 0.368 0.001 0.0000 0.369 0.0000
1703750313.8900 0.370 0.001 -0.0031 0.370 -0.0031
1703750313.8968 0.372 0.001 -0.0016 0.372 -0.0016
1703750313.9038 0.374 0.001 0.0000 0.374 0.0000
1703750313.9105 0.376 0.001 0.0000 0.376 0.0000
1703750313.9174 0.377 0.001 -0.0031 0.377 -0.0031
1703750313.9244 0.379 0.001 -0.0047 0.379 -0.0047
1703750313.9321 0.380 0.001 -0.0031 0.381 -0.0031
1703750313.9390 0.382 0.001 -0.0047 0.382 -0.0047
1703750313.9460 0.384 0.001 -0.0078 0.384 -0.0078
1703750313.9528 0.386 0.001 -0.0062 0.386 -0.0062
1703750313.9598 0.387 0.001 -0.0062 0.387 -0.0062
1703750313.9666 0.389 0.001 -0.0062 0.389 -0.0062
1703750313.9735 0.391 0.001 -0.0062 0.391 -0.0062
1703750313.9811 0.393 0.001 -0.0062 0.393 -0.0062
1703750313.9880 0.394 0.001 -0.0062 0.395 -0.0062
1703750313.9950 0.396 0.001 -0.0078 0.396 -0.0078
1703750314.0018 0.398 0.001 -0.0062 0.398 -0.0062
1703750314.0087 0.399 0.001 -0.0047 0.400 -0.0047
1703750314.0156 0.401 0.001 -0.0047 0.402 -0.0047
1703750314.0226 0.403 0.001 -0.0062 0.403 -0.0062
1703750314.0293 0.405 0.001 -0.0047 0.405 -0.0047
1703750314.0371 0.406 0.001 -0.0031 0.407 -0.0031
1703750314.0442 0.408 0.001 -0.0016 0.408 -0.0016
1703750314.0508 0.410 0.001 -0.0016 0.410 -0.0016
1703750314.0580 0.412 0.001 -0.0016 0.412 -0.0016
1703750314.0647 0.414 0.001 -0.0031 0.414 -0.0031
1703750314.0717 0.415 0.001 0.0000 0.415 0.0000
1703750314.0785 0.417 0.001 0.0031 0.417 0.0031
1703750314.0863 0.419 0.001 0.0031 0.419 0.0031
1703750314.0933 0.421 0.001 0.0016 0.421 0.0016
1703750314.1002 0.422 0.001 0.0047 0.423 0.0047
1703750314.1071 0.424 0.001 0.0078 0.425 0.0078
1703750314.1139 0.426 0.001 0.0078 0.426 0.0078
1703750314.1207 0.428 0.001 0.0078 0.428 0.0078
1703750314.1276 0.429 0.001 0.0062 0.430 0.0062
1703750314.1343 0.431 0.001 0.0093 0.432 0.0093
1703750314.1424 0.433 0.001 0.0124 0.433 0.0124
1703750314.1492 0.435 0.001 0.0124 0.435 0.0124
1703750314.1561 0.437 0.001 0.0124 0.437 0.0124
1703750314.1629 0.439 0.001 0.0124 0.439 0.0124
1703750314.1697 0.440 0.001 0.0140 0.440 0.0140
1703750314.1767 0.442 0.001 0.0171 0.442 0.0171
1703750314.1833 0.443 0.002 0.0186 0.444 0.0186
1703750314.1905 0.445 0.002 0.0171 0.445 0.0171
1703750314.1974 0.447 0.002 0.0171 0.447 0.0171
1703750314.2051 0.449 0.002 0.0202 0.449 0.0202
1703750314.2120 0.450 0.002 0.0217 0.450 0.0217
1703750314.2187 0.452 0.002 0.0217 0.452 0.0217
1703750314.2256 0.454 0.002 0.0217 0.454 0.0217
1703750314.2323 0.456 0.002 0.0233 0.456 0.0233
1703750314.2394 0.457 0.002 0.0248 0.458 0.0248
1703750314.2464 0.459 0.002 0.0248 0.459 0.0248
1703750314.2542 0.461 0.002 0.0248 0.461 0.0248
1703750314.2610 0.463 0.002 0.0264 0.463 0.0264
1703750314.2677 0.465 0.002 0.0264 0.465 0.0264
1703750314.2747 0.466 0.002 0.0248 0.466 0.0248
1703750314.2816 0.468 0.002 0.0264 0.468 0.0264
1703750314.2884 0.469 0.002 0.0248 0.470 0.0248
1703750314.2955 0.471 0.002 0.0248 0.471 0.0248
1703750314.3022 0.473 0.002 0.0264 0.474 0.0264
1703750314.3102 0.475 0.002 0.0264 0.475 0.0264
1703750314.3167 0.476 0.002 0.0264 0.477 0.0264
1703750314.3238 0.478 0.002 0.0248 0.478 0.0248
1703750314.3308 0.480 0.002 0.0233 0.480 0.0233
1703750314.3376 0.482 0.002 0.0233 0.482 0.0233
1703750314.3447 0.484 0.002 0.0233 0.484 0.0233
1703750314.3514 0.485 0.003 0.0233 0.485 0.0233
1703750314.3584 0.487 0.003 0.0233 0.487 0.0233
1703750314.3662 0.489 0.003 0.0233 0.489 0.0233
1703750314.3730 0.491 0.003 0.0217 0.491 0.0217
1703750314.3800 0.492 0.003 0.0217 0.493 0.0217
1703750314.3866 0.494 0.003 0.0202 0.494 0.0202
1703750314.3937 0.496 0.003 0.0202 0.496 0.0202
1703750314.4003 0.498 0.003 0.0202 0.498 0.0202
1703750314.4073 0.499 0.003 0.0186 0.499 0.0186
1703750314.4142 0.501 0.003 0.0186 0.501 0.0186
1703750314.4221 0.503 0.003 0.0186 0.503 0.0186
1703750314.4289 0.505 0.003 0.0186 0.505 0.0186
1703750314.4356 0.506 0.003 0.0171 0.506 0.0171
1703750314.4427 0.508 0.003 0.0140 0.508 0.0140
1703750314.4494 0.509 0.003 0.0124 0.510 0.0124
1703750314.4562 0.511 0.003 0.0109 0.511 0.0109
1703750314.4634 0.513 0.003 0.0109 0.513 0.0109
1703750314.4711 0.515 0.003 0.0124 0.515 0.0124
1703750314.4781 0.516 0.003 0.0093 0.516 0.0093
1703750314.4846 0.518 0.003 0.0062 0.518 0.0062
1703750314.4915 0.520 0.003 0.0062 0.520 0.0062
1703750314.4984 0.521 0.003 0.0062 0.522 0.0062
1703750314.5054 0.523 0.003 0.0047 0.523 0.0047
1703750314.5124 0.525 0.003 0.0016 0.525 0.0016
1703750314.5201 0.527 0.003 0.0000 0.527 0.0000
1703750314.5270 0.529 0.003 0.0000 0.529 0.0000
1703750314.5338 0.531 0.003 0.0000 0.531 0.0000
1703750314.5404 0.532 0.003 -0.0016 0.532 -0.0016
1703750314.5475 0.534 0.003 -0.0031 0.534 -0.0031
1703750314.5544 0.536 0.003 -0.0047 0.536 -0.0047
1703750314.5613 0.538 0.003 -0.0047 0.538 -0.0047
1703750314.5691 0.539 0.003 -0.0062 0.539 -0.0062
1703750314.5760 0.541 0.003 -0.0062 0.541 -0.0062
1703750314.5828 0.543 0.003 -0.0078 0.543 -0.0078
1703750314.5896 0.545 0.003 -0.0078 0.545 -0.0078
1703750314.5967 0.546 0.003 -0.0078 0.546 -0.0078
1703750314.6033 0.548 0.003 -0.0093 0.548 -0.0093
1703750314.6103 0.550 0.003 -0.0109 0.550 -0.0109
1703750314.6181 0.551 0.003 -0.0093 0.551 -0.0093
1703750314.6249 0.553 0.003 -0.0078 0.554 -0.0078
1703750314.6318 0.555 0.003 -0.0093 0.555 -0.0093
1703750314.6385 0.557 0.003 -0.0109 0.557 -0.0109
1703750314.6458 0.558 0.003 -0.0109 0.558 -0.0109
1703750314.6523 0.560 0.003 -0.0109 0.560 -0.0109
1703750314.6592 0.562 0.003 -0.0109 0.562 -0.0109
1703750314.6671 0.564 0.003 -0.0109 0.564 -0.0109
1703750314.6739 0.565 0.003 -0.0109 0.565 -0.0109
1703750314.6808 0.567 0.003 -0.0109 0.567 -0.0109
1703750314.6876 0.569 0.003 -0.0109 0.569 -0.0109
1703750314.6947 0.571 0.003 -0.0109 0.571 -0.0109
1703750314.7015 0.572 0.003 -0.0109 0.572 -0.0109
1703750314.7092 0.574 0.003 -0.0078 0.574 -0.0078
1703750314.7162 0.576 0.003 -0.0062 0.576 -0.0062
1703750314.7228 0.578 0.003 -0.0078 0.578 -0.0078
1703750314.7300 0.579 0.003 -0.0093 0.579 -0.0093
1703750314.7366 0.581 0.003 -0.0078 0.581 -0.0078
1703750314.7437 0.583 0.003 -0.0062 0.583 -0.0062
1703750314.7505 0.584 0.003 -0.0047 0.584 -0.0047
1703750314.7584 0.586 0.003 -0.0047 0.586 -0.0047
1703750314.7652 0.588 0.003 -0.0047 0.588 -0.0047
1703750314.7719 0.590 0.003 -0.0031 0.590 -0.0031
1703750314.7790 0.591 0.003 -0.0016 0.592 -0.0016
1703750314.7858 0.593 0.003 -0.0031 0.593 -0.0031
1703750314.7928 0.595 0.003 -0.0016 0.595 -0.0016
1703750314.7997 0.597 0.003 0.0000 0.597 0.0000
1703750314.8064 0.599 0.003 0.0016 0.599 0.0016
1703750314.8133 0.600 0.003 0.0031 0.600 0.0031
1703750314.8202 0.602 0.003 0.0016 0.602 0.0016
1703750314.8282 0.604 0.003 0.0031 0.604 0.0031
1703750314.8350 0.606 0.003 0.0062 0.606 0.0062
1703750314.8418 0.607 0.003 0.0062 0.608 0.0062
1703750314.8488 0.609 0.003 0.0047 0.609 0.0047
1703750314.8555 0.611 0.003 0.0062 0.611 0.0062
1703750314.8625 0.613 0.003 0.0078 0.613 0.0078
1703750314.8695 0.614 0.003 0.0093 0.614 0.0093
1703750314.8772 0.616 0.003 0.0078 0.616 0.0078
1703750314.8841 0.618 0.003 0.0093 0.618 0.0093
1703750314.8908 0.620 0.003 0.0093 0.620 0.0093
1703750314.8979 0.621 0.003 0.0124 0.622 0.0124
1703750314.9046 0.623 0.003 0.0140 0.623 0.0140
1703750314.9117 0.625 0.003 0.0124 0.625 0.0124
1703750314.9185 0.626 0.003 0.0124 0.627 0.0124
1703750314.9264 0.628 0.003 0.0155 0.628 0.0155
1703750314.9332 0.630 0.003 0.0186 0.630 0.0186
1703750314.9398 0.632 0.003 0.0171 0.632 0.0171
1703750314.9469 0.634 0.003 0.0155 0.634 0.0155
1703750314.9537 0.635 0.003 0.0155 0.636 0.0155
1703750314.9606 0.637 0.003 0.0186 0.637 0.0186
1703750314.9676 0.638 0.003 0.0217 0.639 0.0217
1703750314.9742 0.640 0.003 0.0217 0.640 0.0217
1703750314.9822 0.642 0.003 0.0217 0.642 0.0217
1703750314.9887 0.644 0.003 0.0217 0.644 0.0217
1703750314.9958 0.645 0.003 0.0233 0.646 0.0233
1703750315.0028 0.647 0.003 0.0264 0.647 0.0264
1703750315.0097 0.649 0.003 0.0264 0.649 0.0264
1703750315.0167 0.651 0.003 0.0248 0.651 0.0248
1703750315.0234 0.652 0.003 0.0279 0.653 0.0279
1703750315.0305 0.654 0.003 0.0310 0.654 0.0310
1703750315.0384 0.656 0.003 0.0326 0.656 0.0326
1703750315.0443 0.658 0.004 0.0310 0.658 0.0310
1703750315.0513 0.660 0.004 0.0341 0.660 0.0341
1703750315.0590 0.661 0.004 0.0357 0.661 0.0357
1703750315.0660 0.663 0.004 0.0373 0.663 0.0373
1703750315.0726 0.665 0.004 0.0388 0.665 0.0388
1703750315.0795 0.667 0.004 0.0404 0.667 0.0404
1703750315.0864 0.668 0.004 0.0419 0.669 0.0419
1703750315.0936 0.670 0.004 0.0435 0.670 0.0435
1703750315.1004 0.671 0.004 0.0450 0.672 0.0450
1703750315.1082 0.673 0.004 0.0481 0.673 0.0481
1703750315.1142 0.675 0.004 0.0481 0.675 0.0481
1703750315.1221 0.677 0.004 0.0497 0.677 0.0497
1703750315.1290 0.679 0.004 0.0543 0.679 0.0543
1703750315.1361 0.680 0.005 0.0574 0.681 0.0574
1703750315.1429 0.682 0.005 0.0590 0.682 0.0590
