% Pose without folding and reset (log_20240202_162108.471/log_pose_abs.txt)
% 1 	Time (sec)
% 2,3 	Position x,y (m)
% 4 	heading (rad)
% 5 	Driven distance (m) - signed
% 6 	Turned angle (rad) - signed
1706887269.2128 0.000 0.000 0.0000 0.000 0.0000
1706887269.2217 0.000 0.000 0.0000 0.000 0.0000
1706887269.2325 0.000 0.000 0.0000 0.000 0.0000
1706887269.2395 0.000 0.000 0.0000 0.000 0.0000
1706887269.2499 0.000 0.000 0.0000 0.000 0.0000
1706887269.2586 0.000 0.000 0.0000 0.000 0.0000
1706887269.2646 0.000 0.000 0.0000 0.000 0.0000
1706887269.2668 0.000 0.000 0.0000 0.000 0.0000
1706887269.2755 0.000 0.000 0.0000 0.000 0.0000
1706887269.2836 0.000 0.000 0.0000 0.000 0.0000
1706887269.2915 0.000 0.000 0.0000 0.000 0.0000
1706887269.2997 0.000 0.000 0.0000 0.000 0.0000
1706887269.3077 0.000 0.000 0.0000 0.000 0.0000
1706887269.3155 0.000 0.000 0.0000 0.000 0.0000
1706887269.3233 0.000 0.000 0.0000 0.000 0.0000
1706887269.3314 0.000 0.000 0.0000 0.000 0.0000
1706887269.3390 0.000 0.000 0.0029 0.000 0.0029
1706887269.3472 0.002 0.000 -0.0015 0.002 -0.0015
1706887269.3554 0.002 0.000 -0.0015 0.002 -0.0015
1706887269.3632 0.003 0.000 0.0015 0.003 0.0015
1706887269.3721 0.004 0.000 0.0000 0.004 0.0000
1706887269.3793 0.005 0.000 0.0000 0.005 0.0000
1706887269.3871 0.007 0.000 0.0015 0.007 0.0015
1706887269.3951 0.008 0.000 0.0015 0.008 0.0015
1706887269.4034 0.010 0.000 0.0015 0.010 0.0015
1706887269.4112 0.012 0.000 0.0000 0.012 0.0000
1706887269.4195 0.014 0.000 0.0000 0.014 0.0000
1706887269.4274 0.016 0.000 -0.0029 0.016 -0.0029
1706887269.4360 0.018 0.000 -0.0015 0.018 -0.0015
1706887269.4432 0.021 -0.000 -0.0015 0.021 -0.0015
1706887269.4514 0.023 -0.000 -0.0015 0.023 -0.0015
1706887269.4592 0.025 -0.000 -0.0015 0.025 -0.0015
1706887269.4675 0.028 -0.000 0.0000 0.028 0.0000
1706887269.4754 0.031 -0.000 -0.0015 0.031 -0.0015
1706887269.4830 0.033 -0.000 -0.0029 0.033 -0.0029
1706887269.4913 0.035 -0.000 -0.0015 0.035 -0.0015
1706887269.4996 0.038 -0.000 0.0029 0.038 0.0029
1706887269.5074 0.041 -0.000 0.0044 0.041 0.0044
1706887269.5156 0.043 -0.000 0.0015 0.043 0.0015
1706887269.5235 0.045 -0.000 0.0000 0.045 0.0000
1706887269.5311 0.048 -0.000 0.0015 0.048 0.0015
1706887269.5394 0.050 0.000 0.0029 0.050 0.0029
1706887269.5477 0.053 0.000 0.0015 0.053 0.0015
1706887269.5555 0.056 0.000 -0.0015 0.056 -0.0015
1706887269.5637 0.058 0.000 0.0000 0.058 0.0000
1706887269.5725 0.061 0.000 0.0044 0.061 0.0044
1706887269.5791 0.063 0.000 0.0029 0.063 0.0029
1706887269.5874 0.065 0.000 0.0000 0.065 0.0000
1706887269.5957 0.068 0.000 -0.0015 0.068 -0.0015
1706887269.6035 0.070 0.000 0.0000 0.070 0.0000
1706887269.6118 0.072 0.000 0.0000 0.072 0.0000
1706887269.6199 0.075 0.000 -0.0029 0.075 -0.0029
1706887269.6272 0.077 0.000 -0.0029 0.077 -0.0029
1706887269.6356 0.080 0.000 -0.0015 0.080 -0.0015
1706887269.6438 0.082 0.000 0.0015 0.082 0.0015
1706887269.6516 0.084 0.000 0.0029 0.084 0.0029
1706887269.6599 0.087 0.000 0.0000 0.087 0.0000
1706887269.6679 0.089 0.000 -0.0029 0.089 -0.0029
1706887269.6754 0.092 0.000 -0.0029 0.092 -0.0029
1706887269.6836 0.094 0.000 0.0000 0.094 0.0000
1706887269.6918 0.096 0.000 0.0015 0.096 0.0015
1706887269.6993 0.099 0.000 0.0000 0.099 0.0000
1706887269.7074 0.101 0.000 -0.0029 0.101 -0.0029
1706887269.7157 0.104 -0.000 0.0000 0.104 0.0000
1706887269.7231 0.106 0.000 0.0044 0.106 0.0044
1706887269.7314 0.108 0.000 0.0015 0.108 0.0015
1706887269.7397 0.110 0.000 -0.0029 0.110 -0.0029
1706887269.7475 0.113 0.000 -0.0029 0.113 -0.0029
1706887269.7556 0.115 0.000 0.0029 0.115 0.0029
1706887269.7639 0.118 0.000 0.0058 0.118 0.0058
1706887269.7724 0.120 0.000 0.0015 0.120 0.0015
1706887269.7796 0.122 0.000 -0.0029 0.122 -0.0029
1706887269.7878 0.125 0.000 -0.0015 0.125 -0.0015
1706887269.7965 0.127 0.000 0.0029 0.127 0.0029
1706887269.8037 0.129 0.000 0.0044 0.129 0.0044
1706887269.8120 0.132 0.000 0.0000 0.132 0.0000
1706887269.8198 0.135 0.000 -0.0029 0.135 -0.0029
1706887269.8278 0.137 0.000 -0.0015 0.137 -0.0015
1706887269.8361 0.140 0.000 0.0029 0.140 0.0029
1706887269.8437 0.142 0.000 0.0029 0.142 0.0029
1706887269.8519 0.144 0.000 0.0000 0.144 0.0000
1706887269.8591 0.147 0.000 -0.0029 0.147 -0.0029
1706887269.8680 0.149 0.000 -0.0015 0.149 -0.0015
1706887269.8758 0.151 0.000 0.0015 0.151 0.0015
1706887269.8830 0.154 0.000 0.0015 0.154 0.0015
1706887269.8918 0.156 0.000 -0.0015 0.156 -0.0015
1706887269.9000 0.159 0.000 -0.0015 0.159 -0.0015
1706887269.9073 0.161 0.000 0.0029 0.161 0.0029
1706887269.9152 0.163 0.000 0.0044 0.163 0.0044
1706887269.9232 0.166 0.000 0.0015 0.166 0.0015
1706887269.9314 0.168 0.000 -0.0015 0.168 -0.0015
1706887269.9392 0.170 0.000 0.0000 0.170 0.0000
1706887269.9475 0.173 0.000 0.0029 0.173 0.0029
1706887269.9558 0.175 0.000 0.0029 0.175 0.0029
1706887269.9638 0.178 0.000 0.0000 0.178 0.0000
1706887269.9727 0.180 0.000 -0.0015 0.180 -0.0015
1706887269.9798 0.183 0.000 0.0015 0.183 0.0015
1706887269.9876 0.185 0.000 0.0044 0.185 0.0044
1706887269.9959 0.188 0.000 0.0044 0.188 0.0044
1706887270.0031 0.190 0.000 0.0000 0.190 0.0000
1706887270.0121 0.192 0.000 0.0000 0.192 0.0000
1706887270.0192 0.194 0.000 0.0029 0.194 0.0029
1706887270.0280 0.197 0.000 0.0044 0.197 0.0044
1706887270.0358 0.200 0.000 0.0029 0.200 0.0029
1706887270.0441 0.202 0.000 0.0000 0.202 0.0000
1706887270.0513 0.204 0.000 -0.0015 0.204 -0.0015
1706887270.0592 0.206 0.000 0.0000 0.206 0.0000
1706887270.0673 0.208 0.000 0.0029 0.208 0.0029
1706887270.0753 0.211 0.000 0.0015 0.211 0.0015
1706887270.0832 0.214 0.000 0.0000 0.214 0.0000
1706887270.0915 0.216 0.000 -0.0015 0.216 -0.0015
1706887270.0999 0.218 0.000 -0.0015 0.218 -0.0015
1706887270.1077 0.220 0.000 0.0000 0.220 0.0000
1706887270.1157 0.224 0.000 0.0000 0.224 0.0000
