% Pose without folding and reset (log_20240202_162221.774/log_pose_abs.txt)
% 1 	Time (sec)
% 2,3 	Position x,y (m)
% 4 	heading (rad)
% 5 	Driven distance (m) - signed
% 6 	Turned angle (rad) - signed
1706887342.1713 0.000 0.000 0.0000 0.000 0.0000
1706887342.1789 0.000 0.000 0.0000 0.000 0.0000
1706887342.1861 0.000 0.000 0.0000 0.000 0.0000
1706887342.1949 -0.000 -0.000 0.0015 -0.000 0.0015
1706887342.2020 -0.000 -0.000 0.0015 -0.000 0.0015
1706887342.2102 0.000 0.000 0.0000 0.000 0.0000
1706887342.2189 0.000 0.000 0.0000 0.000 0.0000
1706887342.2266 0.000 0.000 0.0000 0.000 0.0000
1706887342.2346 0.000 0.000 0.0000 0.000 0.0000
1706887342.2423 0.000 0.000 0.0000 0.000 0.0000
1706887342.2507 0.000 0.000 0.0000 0.000 0.0000
1706887342.2582 0.000 0.000 0.0000 0.000 0.0000
1706887342.2661 0.000 0.000 0.0000 0.000 0.0000
1706887342.2747 0.000 0.000 0.0000 0.000 0.0000
1706887342.2824 0.000 0.000 0.0000 0.000 0.0000
1706887342.2902 0.000 0.000 0.0000 0.000 0.0000
1706887342.2984 0.000 0.000 0.0029 0.000 0.0029
1706887342.3066 0.001 0.000 0.0058 0.001 0.0058
1706887342.3143 0.002 0.000 0.0029 0.002 0.0029
1706887342.3224 0.003 0.000 0.0000 0.003 0.0000
1706887342.3304 0.004 0.000 0.0000 0.004 0.0000
1706887342.3379 0.005 0.000 0.0000 0.005 0.0000
1706887342.3462 0.006 0.000 -0.0015 0.006 -0.0015
1706887342.3544 0.007 0.000 0.0000 0.007 0.0000
1706887342.3622 0.009 0.000 -0.0029 0.009 -0.0029
1706887342.3703 0.011 -0.000 -0.0058 0.011 -0.0058
1706887342.3781 0.013 -0.000 -0.0029 0.013 -0.0029
1706887342.3859 0.015 -0.000 -0.0044 0.015 -0.0044
1706887342.3941 0.017 -0.000 -0.0058 0.017 -0.0058
1706887342.4024 0.020 -0.000 -0.0058 0.020 -0.0058
1706887342.4110 0.022 -0.000 -0.0058 0.022 -0.0058
1706887342.4182 0.024 -0.000 -0.0058 0.024 -0.0058
1706887342.4271 0.027 -0.000 -0.0058 0.027 -0.0058
1706887342.4339 0.029 -0.000 -0.0044 0.029 -0.0044
1706887342.4422 0.032 -0.000 -0.0044 0.032 -0.0044
1706887342.4504 0.034 -0.000 -0.0044 0.034 -0.0044
1706887342.4580 0.037 -0.000 -0.0029 0.037 -0.0029
1706887342.4663 0.039 -0.000 -0.0029 0.039 -0.0029
1706887342.4747 0.042 -0.000 -0.0044 0.042 -0.0044
1706887342.4821 0.044 -0.000 -0.0029 0.044 -0.0029
1706887342.4905 0.047 -0.000 0.0000 0.047 0.0000
1706887342.4987 0.049 -0.000 -0.0015 0.049 -0.0015
1706887342.5064 0.052 -0.000 -0.0044 0.052 -0.0044
1706887342.5147 0.054 -0.000 -0.0058 0.054 -0.0058
1706887342.5219 0.057 -0.000 -0.0015 0.057 -0.0015
1706887342.5305 0.059 -0.000 0.0000 0.059 0.0000
1706887342.5387 0.061 -0.000 -0.0029 0.061 -0.0029
1706887342.5468 0.064 -0.000 -0.0044 0.064 -0.0044
1706887342.5547 0.067 -0.000 -0.0029 0.067 -0.0029
1706887342.5630 0.069 -0.000 -0.0015 0.069 -0.0015
1706887342.5702 0.071 -0.000 -0.0015 0.071 -0.0015
1706887342.5787 0.073 -0.000 -0.0029 0.073 -0.0029
1706887342.5859 0.076 -0.000 -0.0029 0.076 -0.0029
1706887342.5940 0.078 -0.000 -0.0015 0.078 -0.0015
1706887342.6019 0.080 -0.000 0.0000 0.080 0.0000
1706887342.6102 0.083 -0.000 0.0015 0.083 0.0015
1706887342.6184 0.086 -0.000 0.0000 0.086 0.0000
1706887342.6269 0.088 -0.000 -0.0015 0.088 -0.0015
1706887342.6341 0.090 -0.000 0.0000 0.090 0.0000
1706887342.6422 0.092 -0.000 0.0015 0.092 0.0015
1706887342.6501 0.095 -0.000 0.0000 0.095 0.0000
1706887342.6585 0.097 -0.000 0.0000 0.097 0.0000
1706887342.6668 0.100 -0.000 0.0000 0.100 0.0000
1706887342.6746 0.102 -0.000 0.0015 0.102 0.0015
1706887342.6823 0.105 -0.000 0.0015 0.105 0.0015
1706887342.6907 0.107 -0.000 0.0015 0.107 0.0015
1706887342.6985 0.109 -0.000 0.0015 0.109 0.0015
1706887342.7067 0.112 -0.000 0.0015 0.112 0.0015
1706887342.7139 0.114 -0.000 0.0029 0.114 0.0029
1706887342.7219 0.117 -0.000 0.0015 0.117 0.0015
1706887342.7307 0.119 -0.000 0.0000 0.119 0.0000
1706887342.7380 0.121 -0.000 0.0015 0.121 0.0015
1706887342.7459 0.124 -0.000 0.0015 0.124 0.0015
1706887342.7542 0.126 -0.000 0.0015 0.126 0.0015
1706887342.7625 0.128 -0.000 0.0000 0.128 0.0000
1706887342.7700 0.130 -0.000 0.0015 0.130 0.0015
1706887342.7780 0.133 -0.000 0.0015 0.133 0.0015
1706887342.7863 0.136 -0.000 0.0000 0.136 0.0000
1706887342.7942 0.138 -0.000 -0.0015 0.138 -0.0015
1706887342.8025 0.140 -0.000 -0.0015 0.140 -0.0015
1706887342.8108 0.143 -0.000 0.0000 0.143 0.0000
1706887342.8184 0.145 -0.000 0.0000 0.145 0.0000
1706887342.8273 0.147 -0.000 0.0000 0.147 0.0000
1706887342.8342 0.150 -0.000 0.0015 0.150 0.0015
1706887342.8420 0.152 -0.000 0.0015 0.152 0.0015
1706887342.8504 0.155 -0.000 0.0015 0.155 0.0015
1706887342.8587 0.157 -0.000 0.0000 0.157 0.0000
1706887342.8663 0.159 -0.000 0.0000 0.159 0.0000
1706887342.8746 0.162 -0.000 0.0000 0.162 0.0000
1706887342.8824 0.164 -0.000 0.0000 0.164 0.0000
1706887342.8903 0.166 -0.000 -0.0015 0.166 -0.0015
1706887342.8985 0.168 -0.000 -0.0015 0.168 -0.0015
1706887342.9066 0.171 -0.000 0.0029 0.171 0.0029
1706887342.9144 0.174 -0.000 0.0000 0.174 0.0000
1706887342.9227 0.177 -0.000 -0.0015 0.177 -0.0015
1706887342.9306 0.179 -0.000 0.0000 0.179 0.0000
1706887342.9384 0.181 -0.000 0.0029 0.181 0.0029
1706887342.9467 0.184 -0.000 0.0029 0.184 0.0029
1706887342.9548 0.186 -0.000 0.0000 0.186 0.0000
1706887342.9626 0.189 -0.000 -0.0015 0.189 -0.0015
1706887342.9708 0.191 -0.000 0.0000 0.191 0.0000
1706887342.9788 0.193 -0.000 0.0029 0.193 0.0029
1706887342.9866 0.196 -0.000 0.0029 0.196 0.0029
1706887342.9948 0.198 -0.000 -0.0015 0.198 -0.0015
1706887343.0019 0.200 -0.000 -0.0044 0.200 -0.0044
1706887343.0108 0.203 -0.000 -0.0015 0.203 -0.0015
1706887343.0180 0.205 -0.000 0.0029 0.205 0.0029
1706887343.0270 0.207 -0.000 0.0029 0.207 0.0029
1706887343.0349 0.210 -0.000 -0.0015 0.210 -0.0015
1706887343.0428 0.212 -0.000 -0.0044 0.212 -0.0044
1706887343.0501 0.215 -0.000 -0.0015 0.215 -0.0015
1706887343.0580 0.217 -0.000 0.0029 0.217 0.0029
1706887343.0662 0.219 -0.000 0.0015 0.219 0.0015
1706887343.0744 0.222 -0.000 -0.0044 0.222 -0.0044
1706887343.0819 0.224 -0.000 -0.0058 0.224 -0.0058
1706887343.0899 0.227 -0.000 -0.0015 0.227 -0.0015
1706887343.0982 0.229 -0.000 0.0000 0.229 0.0000
1706887343.1062 0.231 -0.000 -0.0015 0.231 -0.0015
1706887343.1145 0.233 -0.000 -0.0044 0.233 -0.0044
1706887343.1229 0.236 -0.000 -0.0029 0.236 -0.0029
1706887343.1301 0.239 -0.000 0.0000 0.239 0.0000
1706887343.1384 0.241 -0.000 -0.0015 0.241 -0.0015
1706887343.1466 0.242 -0.000 -0.0015 0.242 -0.0015
1706887343.1544 0.245 -0.000 -0.0029 0.245 -0.0029
1706887343.1628 0.248 -0.000 -0.0015 0.248 -0.0015
1706887343.1702 0.250 -0.000 -0.0015 0.250 -0.0015
1706887343.1787 0.253 -0.000 -0.0015 0.253 -0.0015
1706887343.1860 0.255 -0.000 0.0000 0.255 0.0000
1706887343.1944 0.257 -0.000 0.0000 0.257 0.0000
1706887343.2022 0.260 -0.000 0.0000 0.260 0.0000
1706887343.2104 0.262 -0.000 0.0000 0.262 0.0000
1706887343.2187 0.264 -0.000 -0.0015 0.264 -0.0015
1706887343.2270 0.267 -0.000 0.0000 0.267 0.0000
1706887343.2343 0.269 -0.000 0.0000 0.269 0.0000
1706887343.2426 0.272 -0.000 0.0000 0.272 0.0000
1706887343.2505 0.274 -0.000 -0.0015 0.274 -0.0015
1706887343.2588 0.276 -0.000 -0.0029 0.276 -0.0029
1706887343.2668 0.279 -0.000 0.0015 0.279 0.0015
1706887343.2746 0.281 -0.000 0.0029 0.281 0.0029
1706887343.2825 0.284 -0.000 0.0000 0.284 0.0000
1706887343.2909 0.286 -0.000 -0.0044 0.286 -0.0044
1706887343.2988 0.288 -0.000 -0.0015 0.288 -0.0015
1706887343.3060 0.291 -0.000 0.0044 0.291 0.0044
1706887343.3141 0.293 -0.000 0.0029 0.293 0.0029
1706887343.3220 0.295 -0.000 -0.0029 0.295 -0.0029
1706887343.3309 0.298 -0.000 -0.0058 0.298 -0.0058
1706887343.3389 0.301 -0.000 -0.0015 0.301 -0.0015
1706887343.3468 0.303 -0.000 0.0029 0.303 0.0029
1706887343.3540 0.304 -0.000 0.0029 0.304 0.0029
1706887343.3621 0.305 -0.000 0.0000 0.305 0.0000
1706887343.3700 0.305 -0.000 -0.0015 0.305 -0.0015
1706887343.3779 0.306 -0.000 0.0000 0.306 0.0000
1706887343.3862 0.307 -0.000 0.0000 0.307 0.0000
1706887343.3940 0.307 -0.000 -0.0015 0.307 -0.0015
1706887343.4021 0.308 -0.000 0.0000 0.308 0.0000
1706887343.4104 0.309 -0.000 0.0000 0.309 0.0000
1706887343.4182 0.310 -0.000 0.0015 0.310 0.0015
1706887343.4271 0.310 -0.000 0.0044 0.310 0.0044
1706887343.4344 0.310 -0.000 0.0058 0.310 0.0058
1706887343.4423 0.310 -0.000 0.0073 0.310 0.0073
1706887343.4504 0.311 -0.000 0.0088 0.311 0.0088
1706887343.4586 0.311 -0.000 0.0131 0.311 0.0131
1706887343.4664 0.311 -0.000 0.0146 0.311 0.0146
1706887343.4746 0.311 -0.000 0.0146 0.311 0.0146
1706887343.4825 0.312 -0.000 0.0161 0.312 0.0161
1706887343.4901 0.312 -0.000 0.0205 0.312 0.0205
1706887343.4983 0.312 -0.000 0.0248 0.312 0.0248
1706887343.5066 0.312 -0.000 0.0278 0.312 0.0278
1706887343.5144 0.312 -0.000 0.0278 0.312 0.0278
1706887343.5227 0.312 -0.000 0.0307 0.312 0.0307
1706887343.5306 0.312 -0.000 0.0321 0.312 0.0321
1706887343.5381 0.312 -0.000 0.0351 0.312 0.0351
1706887343.5465 0.312 -0.000 0.0365 0.312 0.0365
1706887343.5547 0.311 -0.000 0.0380 0.311 0.0380
1706887343.5625 0.311 -0.000 0.0424 0.311 0.0424
1706887343.5707 0.311 -0.000 0.0453 0.311 0.0453
1706887343.5787 0.311 -0.000 0.0497 0.311 0.0497
1706887343.5862 0.311 -0.000 0.0541 0.311 0.0541
1706887343.5945 0.311 -0.000 0.0614 0.311 0.0614
1706887343.6028 0.311 -0.000 0.0672 0.311 0.0672
1706887343.6106 0.312 -0.000 0.0716 0.312 0.0716
1706887343.6188 0.312 -0.000 0.0774 0.312 0.0774
1706887343.6275 0.312 -0.000 0.0847 0.312 0.0847
1706887343.6343 0.312 -0.000 0.0906 0.312 0.0906
1706887343.6426 0.312 -0.000 0.0964 0.312 0.0964
1706887343.6499 0.312 -0.000 0.1008 0.312 0.1008
1706887343.6588 0.312 -0.000 0.1066 0.312 0.1066
1706887343.6660 0.312 -0.000 0.1125 0.312 0.1125
1706887343.6741 0.313 -0.000 0.1183 0.313 0.1183
1706887343.6826 0.313 -0.000 0.1213 0.313 0.1213
1706887343.6909 0.312 -0.000 0.1242 0.312 0.1242
1706887343.6982 0.312 -0.000 0.1271 0.312 0.1271
1706887343.7060 0.312 -0.000 0.1344 0.312 0.1344
1706887343.7143 0.313 -0.000 0.1417 0.313 0.1417
1706887343.7225 0.313 -0.000 0.1446 0.313 0.1446
1706887343.7299 0.313 -0.000 0.1476 0.313 0.1476
1706887343.7382 0.313 -0.000 0.1519 0.313 0.1519
1706887343.7465 0.313 -0.000 0.1563 0.313 0.1563
1706887343.7543 0.313 -0.000 0.1592 0.313 0.1592
1706887343.7624 0.313 -0.000 0.1636 0.313 0.1636
1706887343.7706 0.313 -0.000 0.1680 0.313 0.1680
1706887343.7780 0.313 -0.000 0.1724 0.313 0.1724
1706887343.7864 0.313 -0.000 0.1753 0.313 0.1753
1706887343.7946 0.313 -0.000 0.1797 0.313 0.1797
1706887343.8024 0.313 -0.000 0.1841 0.313 0.1841
1706887343.8104 0.313 -0.000 0.1885 0.313 0.1885
1706887343.8186 0.313 -0.000 0.1899 0.313 0.1899
1706887343.8270 0.313 -0.000 0.1958 0.313 0.1958
1706887343.8349 0.313 -0.000 0.2001 0.313 0.2001
1706887343.8422 0.314 0.000 0.2060 0.314 0.2060
1706887343.8512 0.313 -0.000 0.2104 0.313 0.2104
1706887343.8584 0.313 -0.000 0.2133 0.313 0.2133
1706887343.8667 0.313 -0.000 0.2148 0.313 0.2148
1706887343.8744 0.313 -0.000 0.2191 0.313 0.2191
1706887343.8822 0.313 -0.000 0.2235 0.313 0.2235
1706887343.8905 0.313 -0.000 0.2323 0.313 0.2323
1706887343.8981 0.313 -0.000 0.2352 0.313 0.2352
1706887343.9065 0.313 -0.000 0.2367 0.313 0.2367
1706887343.9147 0.313 -0.000 0.2411 0.313 0.2411
1706887343.9225 0.313 -0.000 0.2469 0.313 0.2469
1706887343.9304 0.313 -0.000 0.2527 0.313 0.2527
1706887343.9386 0.313 -0.000 0.2542 0.313 0.2542
1706887343.9462 0.313 -0.000 0.2571 0.313 0.2571
1706887343.9545 0.313 -0.000 0.2600 0.313 0.2600
1706887343.9628 0.313 -0.000 0.2659 0.313 0.2659
1706887343.9706 0.313 -0.000 0.2717 0.313 0.2717
1706887343.9785 0.313 -0.000 0.2761 0.313 0.2761
1706887343.9865 0.313 -0.000 0.2776 0.313 0.2776
1706887343.9943 0.313 -0.000 0.2805 0.313 0.2805
1706887344.0025 0.313 -0.000 0.2849 0.313 0.2849
1706887344.0108 0.313 -0.000 0.2922 0.313 0.2922
1706887344.0185 0.313 -0.000 0.2980 0.313 0.2980
1706887344.0275 0.313 -0.000 0.3010 0.313 0.3010
1706887344.0350 0.313 -0.000 0.3039 0.313 0.3039
1706887344.0429 0.312 -0.000 0.3068 0.312 0.3068
1706887344.0508 0.312 -0.000 0.3097 0.312 0.3097
1706887344.0587 0.313 -0.000 0.3141 0.313 0.3141
1706887344.0665 0.313 -0.000 0.3199 0.313 0.3199
1706887344.0742 0.312 -0.000 0.3214 0.312 0.3214
1706887344.0828 0.312 -0.000 0.3243 0.312 0.3243
1706887344.0907 0.312 -0.000 0.3273 0.312 0.3273
1706887344.0986 0.312 -0.000 0.3316 0.312 0.3316
1706887344.1065 0.312 -0.000 0.3360 0.312 0.3360
1706887344.1139 0.312 -0.000 0.3404 0.312 0.3404
1706887344.1220 0.312 -0.000 0.3419 0.312 0.3419
1706887344.1300 0.312 -0.000 0.3462 0.312 0.3462
1706887344.1379 0.312 -0.000 0.3492 0.312 0.3492
1706887344.1462 0.312 -0.001 0.3535 0.312 0.3535
1706887344.1545 0.312 -0.001 0.3594 0.312 0.3594
1706887344.1623 0.312 -0.001 0.3623 0.312 0.3623
1706887344.1704 0.312 -0.001 0.3652 0.312 0.3652
1706887344.1782 0.312 -0.001 0.3711 0.312 0.3711
1706887344.1861 0.312 -0.001 0.3769 0.312 0.3769
1706887344.1945 0.312 -0.001 0.3813 0.312 0.3813
1706887344.2027 0.311 -0.001 0.3828 0.311 0.3828
1706887344.2116 0.312 -0.001 0.3872 0.312 0.3872
1706887344.2188 0.311 -0.001 0.3945 0.311 0.3945
1706887344.2268 0.312 -0.001 0.4003 0.312 0.4003
1706887344.2346 0.312 -0.000 0.4047 0.312 0.4047
1706887344.2429 0.312 -0.001 0.4061 0.312 0.4061
1706887344.2503 0.312 -0.001 0.4105 0.312 0.4105
1706887344.2579 0.311 -0.001 0.4178 0.311 0.4178
1706887344.2661 0.312 -0.001 0.4222 0.312 0.4222
1706887344.2745 0.312 -0.001 0.4222 0.312 0.4222
1706887344.2819 0.312 -0.001 0.4222 0.312 0.4222
1706887344.2902 0.311 -0.001 0.4266 0.311 0.4266
1706887344.2985 0.311 -0.001 0.4324 0.311 0.4324
1706887344.3062 0.311 -0.001 0.4368 0.311 0.4368
1706887344.3145 0.312 -0.000 0.4412 0.312 0.4412
1706887344.3228 0.312 -0.000 0.4441 0.312 0.4441
1706887344.3303 0.312 -0.001 0.4456 0.312 0.4456
1706887344.3381 0.311 -0.001 0.4514 0.311 0.4514
1706887344.3463 0.311 -0.001 0.4558 0.311 0.4558
1706887344.3541 0.311 -0.001 0.4587 0.311 0.4587
1706887344.3624 0.312 -0.001 0.4602 0.312 0.4602
1706887344.3707 0.312 -0.000 0.4646 0.312 0.4646
1706887344.3781 0.311 -0.001 0.4704 0.311 0.4704
1706887344.3863 0.311 -0.001 0.4777 0.311 0.4777
1706887344.3944 0.312 -0.000 0.4821 0.312 0.4821
1706887344.4023 0.312 -0.000 0.4821 0.312 0.4821
1706887344.4106 0.312 -0.000 0.4836 0.312 0.4836
1706887344.4180 0.312 -0.001 0.4894 0.312 0.4894
1706887344.4276 0.312 -0.001 0.4953 0.312 0.4953
1706887344.4348 0.312 -0.000 0.5026 0.312 0.5026
1706887344.4420 0.312 -0.000 0.5055 0.312 0.5055
1706887344.4509 0.312 -0.000 0.5069 0.312 0.5069
1706887344.4581 0.312 -0.000 0.5099 0.312 0.5099
1706887344.4664 0.312 -0.001 0.5186 0.312 0.5186
1706887344.4742 0.312 -0.000 0.5216 0.312 0.5216
1706887344.4819 0.312 -0.000 0.5230 0.312 0.5230
1706887344.4903 0.312 -0.000 0.5274 0.312 0.5274
1706887344.4981 0.312 -0.000 0.5303 0.312 0.5303
1706887344.5064 0.312 -0.000 0.5391 0.312 0.5391
1706887344.5147 0.312 -0.000 0.5435 0.312 0.5435
1706887344.5225 0.312 -0.000 0.5435 0.312 0.5435
1706887344.5302 0.312 -0.000 0.5449 0.312 0.5449
1706887344.5386 0.312 -0.000 0.5493 0.312 0.5493
1706887344.5464 0.312 -0.000 0.5552 0.312 0.5552
1706887344.5547 0.312 -0.000 0.5610 0.312 0.5610
1706887344.5620 0.312 -0.000 0.5639 0.312 0.5639
1706887344.5708 0.312 -0.000 0.5654 0.312 0.5654
1706887344.5787 0.312 -0.000 0.5698 0.312 0.5698
1706887344.5860 0.312 -0.000 0.5756 0.312 0.5756
1706887344.5949 0.312 -0.000 0.5800 0.312 0.5800
1706887344.6021 0.312 -0.000 0.5815 0.312 0.5815
1706887344.6105 0.312 -0.001 0.5844 0.312 0.5844
1706887344.6182 0.312 -0.001 0.5888 0.312 0.5888
1706887344.6272 0.312 -0.001 0.5931 0.312 0.5931
1706887344.6345 0.312 -0.000 0.5990 0.312 0.5990
1706887344.6423 0.312 -0.000 0.6048 0.312 0.6048
1706887344.6506 0.312 -0.001 0.6078 0.312 0.6078
1706887344.6579 0.312 -0.001 0.6078 0.312 0.6078
1706887344.6667 0.312 -0.000 0.6107 0.312 0.6107
1706887344.6749 0.312 -0.000 0.6180 0.312 0.6180
1706887344.6828 0.312 -0.000 0.6282 0.312 0.6282
1706887344.6908 0.312 -0.000 0.6326 0.312 0.6326
1706887344.6980 0.312 -0.000 0.6341 0.312 0.6341
1706887344.7062 0.312 -0.000 0.6341 0.312 0.6341
1706887344.7140 0.312 -0.000 0.6384 0.312 0.6384
1706887344.7223 0.312 -0.001 0.6457 0.312 0.6457
1706887344.7302 0.312 -0.001 0.6501 0.312 0.6501
1706887344.7382 0.312 -0.001 0.6530 0.312 0.6530
1706887344.7465 0.312 -0.001 0.6545 0.312 0.6545
1706887344.7546 0.312 -0.001 0.6589 0.312 0.6589
1706887344.7625 0.311 -0.001 0.6633 0.311 0.6633
1706887344.7708 0.311 -0.001 0.6691 0.311 0.6691
1706887344.7788 0.312 -0.001 0.6706 0.312 0.6706
1706887344.7867 0.312 -0.001 0.6720 0.312 0.6720
1706887344.7949 0.312 -0.001 0.6779 0.312 0.6779
1706887344.8020 0.312 -0.001 0.6881 0.312 0.6881
1706887344.8109 0.312 -0.001 0.6910 0.312 0.6910
1706887344.8181 0.312 -0.001 0.6910 0.312 0.6910
1706887344.8272 0.312 -0.001 0.6969 0.312 0.6969
1706887344.8346 0.312 -0.001 0.7027 0.312 0.7027
1706887344.8427 0.312 -0.001 0.7056 0.312 0.7056
1706887344.8499 0.311 -0.001 0.7071 0.311 0.7071
1706887344.8589 0.311 -0.001 0.7100 0.311 0.7100
1706887344.8661 0.312 -0.001 0.7144 0.312 0.7144
1706887344.8745 0.312 -0.000 0.7202 0.312 0.7202
1706887344.8819 0.312 -0.001 0.7246 0.312 0.7246
1706887344.8901 0.312 -0.001 0.7261 0.312 0.7261
1706887344.8985 0.312 -0.001 0.7290 0.312 0.7290
1706887344.9063 0.312 -0.001 0.7305 0.312 0.7305
1706887344.9146 0.312 -0.001 0.7392 0.312 0.7392
1706887344.9229 0.312 -0.000 0.7451 0.312 0.7451
1706887344.9312 0.312 -0.000 0.7480 0.312 0.7480
1706887344.9384 0.312 -0.001 0.7509 0.312 0.7509
1706887344.9467 0.312 -0.001 0.7553 0.312 0.7553
1706887344.9545 0.312 -0.000 0.7597 0.312 0.7597
1706887344.9628 0.312 -0.000 0.7626 0.312 0.7626
1706887344.9701 0.312 -0.000 0.7655 0.312 0.7655
1706887344.9785 0.312 -0.001 0.7714 0.312 0.7714
1706887344.9867 0.312 -0.000 0.7787 0.312 0.7787
1706887344.9940 0.312 -0.000 0.7831 0.312 0.7831
1706887345.0019 0.312 -0.000 0.7831 0.312 0.7831
1706887345.0102 0.312 -0.000 0.7845 0.312 0.7845
1706887345.0186 0.312 -0.001 0.7904 0.312 0.7904
1706887345.0269 0.312 -0.001 0.7977 0.312 0.7977
1706887345.0342 0.312 -0.000 0.8035 0.312 0.8035
1706887345.0424 0.312 -0.000 0.8050 0.312 0.8050
1706887345.0502 0.312 -0.000 0.8079 0.312 0.8079
1706887345.0585 0.312 -0.000 0.8108 0.312 0.8108
1706887345.0666 0.312 -0.001 0.8152 0.311 0.8152
1706887345.0744 0.312 -0.001 0.8181 0.312 0.8181
1706887345.0823 0.312 -0.000 0.8211 0.312 0.8211
1706887345.0906 0.312 -0.000 0.8254 0.312 0.8254
1706887345.0985 0.312 -0.001 0.8298 0.312 0.8298
1706887345.1067 0.312 -0.001 0.8342 0.312 0.8342
1706887345.1149 0.312 -0.000 0.8400 0.312 0.8400
1706887345.1228 0.312 0.000 0.8444 0.312 0.8444
1706887345.1306 0.312 0.000 0.8473 0.312 0.8473
1706887345.1380 0.312 -0.000 0.8517 0.312 0.8517
1706887345.1469 0.312 -0.000 0.8547 0.312 0.8547
1706887345.1541 0.312 -0.001 0.8561 0.312 0.8561
1706887345.1623 0.312 -0.000 0.8576 0.312 0.8576
1706887345.1701 0.312 -0.000 0.8634 0.312 0.8634
1706887345.1779 0.312 -0.000 0.8693 0.312 0.8693
1706887345.1863 0.312 -0.000 0.8736 0.312 0.8736
1706887345.1942 0.312 -0.000 0.8780 0.312 0.8780
1706887345.2025 0.312 -0.001 0.8795 0.312 0.8795
1706887345.2108 0.312 -0.001 0.8824 0.312 0.8824
1706887345.2186 0.312 -0.001 0.8897 0.312 0.8897
1706887345.2275 0.312 -0.001 0.8956 0.312 0.8956
1706887345.2347 0.312 -0.000 0.8985 0.312 0.8985
1706887345.2425 0.312 -0.000 0.9014 0.312 0.9014
1706887345.2506 0.312 -0.001 0.9029 0.312 0.9029
1706887345.2590 0.312 -0.001 0.9087 0.311 0.9087
1706887345.2669 0.311 -0.001 0.9146 0.311 0.9146
1706887345.2742 0.311 -0.001 0.9189 0.311 0.9189
1706887345.2822 0.312 -0.001 0.9233 0.312 0.9233
1706887345.2910 0.312 -0.001 0.9262 0.311 0.9262
1706887345.2982 0.311 -0.001 0.9321 0.311 0.9321
1706887345.3066 0.311 -0.001 0.9365 0.311 0.9365
1706887345.3143 0.311 -0.001 0.9423 0.311 0.9423
1706887345.3226 0.312 -0.001 0.9452 0.312 0.9452
1706887345.3305 0.312 -0.001 0.9482 0.312 0.9482
1706887345.3379 0.311 -0.001 0.9525 0.311 0.9525
1706887345.3462 0.311 -0.001 0.9598 0.311 0.9598
1706887345.3545 0.311 -0.001 0.9628 0.311 0.9628
1706887345.3624 0.312 -0.001 0.9642 0.311 0.9642
1706887345.3707 0.311 -0.001 0.9671 0.311 0.9671
