% Pose without folding and reset (log_20240202_162047.273/log_pose_abs.txt)
% 1 	Time (sec)
% 2,3 	Position x,y (m)
% 4 	heading (rad)
% 5 	Driven distance (m) - signed
% 6 	Turned angle (rad) - signed
1706887248.1643 0.000 0.000 0.0000 0.000 0.0000
1706887248.1719 0.000 0.000 0.0000 0.000 0.0000
1706887248.1793 0.000 0.000 0.0000 0.000 0.0000
1706887248.1869 0.000 0.000 0.0000 0.000 0.0000
1706887248.1949 0.000 0.000 0.0000 0.000 0.0000
1706887248.2030 0.000 0.000 0.0000 0.000 0.0000
1706887248.2116 0.000 0.000 0.0000 0.000 0.0000
1706887248.2203 0.000 0.000 0.0000 0.000 0.0000
1706887248.2271 0.000 0.000 0.0000 0.000 0.0000
1706887248.2350 0.000 0.000 0.0000 0.000 0.0000
1706887248.2432 0.000 0.000 0.0000 0.000 0.0000
1706887248.2514 0.000 0.000 0.0000 0.000 0.0000
1706887248.2592 0.000 0.000 0.0000 0.000 0.0000
1706887248.2674 0.000 0.000 0.0000 0.000 0.0000
1706887248.2750 0.000 0.000 0.0000 0.000 0.0000
1706887248.2837 0.000 0.000 0.0000 0.000 0.0000
1706887248.2918 0.001 0.000 0.0073 0.001 0.0073
1706887248.2989 0.002 0.000 0.0044 0.002 0.0044
1706887248.3077 0.003 0.000 0.0029 0.003 0.0029
1706887248.3157 0.004 0.000 0.0044 0.004 0.0044
1706887248.3235 0.005 0.000 0.0044 0.005 0.0044
1706887248.3313 0.006 0.000 0.0044 0.006 0.0044
1706887248.3394 0.007 0.000 0.0044 0.007 0.0044
1706887248.3476 0.009 0.000 0.0058 0.009 0.0058
1706887248.3554 0.011 0.000 0.0029 0.011 0.0029
1706887248.3635 0.012 0.000 0.0015 0.012 0.0015
1706887248.3713 0.014 0.000 0.0029 0.014 0.0029
1706887248.3792 0.017 0.000 0.0029 0.017 0.0029
1706887248.3874 0.019 0.000 0.0015 0.019 0.0015
1706887248.3957 0.021 0.000 0.0000 0.021 0.0000
1706887248.4033 0.024 0.000 0.0015 0.024 0.0015
1706887248.4116 0.026 0.000 0.0015 0.026 0.0015
1706887248.4195 0.028 0.000 0.0000 0.028 0.0000
1706887248.4276 0.031 0.000 0.0000 0.031 0.0000
1706887248.4358 0.034 0.000 0.0029 0.034 0.0029
1706887248.4430 0.036 0.000 0.0029 0.036 0.0029
1706887248.4517 0.038 0.000 0.0015 0.038 0.0015
1706887248.4599 0.040 0.000 0.0000 0.040 0.0000
1706887248.4670 0.043 0.000 0.0000 0.043 0.0000
1706887248.4754 0.046 0.000 0.0000 0.046 0.0000
1706887248.4836 0.048 0.000 0.0015 0.048 0.0015
1706887248.4919 0.050 0.000 0.0015 0.050 0.0015
1706887248.4995 0.053 0.000 -0.0015 0.053 -0.0015
1706887248.5077 0.056 0.000 -0.0015 0.056 -0.0015
1706887248.5149 0.058 0.000 0.0000 0.058 0.0000
1706887248.5233 0.060 0.000 0.0029 0.060 0.0029
1706887248.5315 0.062 0.000 0.0015 0.062 0.0015
1706887248.5395 0.065 0.000 -0.0029 0.065 -0.0029
1706887248.5473 0.067 0.000 -0.0029 0.067 -0.0029
1706887248.5555 0.070 0.000 0.0015 0.070 0.0015
1706887248.5637 0.073 0.000 0.0015 0.073 0.0015
1706887248.5711 0.075 0.000 0.0015 0.075 0.0015
1706887248.5793 0.077 0.000 -0.0015 0.077 -0.0015
1706887248.5874 0.080 0.000 -0.0015 0.080 -0.0015
1706887248.5952 0.082 0.000 0.0029 0.082 0.0029
1706887248.6033 0.084 0.000 0.0015 0.084 0.0015
1706887248.6116 0.086 0.000 -0.0015 0.086 -0.0015
1706887248.6201 0.089 0.000 -0.0044 0.089 -0.0044
1706887248.6272 0.092 0.000 0.0000 0.092 0.0000
1706887248.6353 0.094 0.000 0.0015 0.094 0.0015
1706887248.6431 0.096 0.000 0.0000 0.096 0.0000
1706887248.6513 0.098 0.000 -0.0029 0.098 -0.0029
1706887248.6602 0.101 0.000 -0.0029 0.101 -0.0029
1706887248.6671 0.104 0.000 0.0000 0.104 0.0000
1706887248.6759 0.106 0.000 0.0015 0.106 0.0015
1706887248.6830 0.108 0.000 0.0000 0.108 0.0000
1706887248.6918 0.110 0.000 0.0000 0.110 0.0000
1706887248.6990 0.113 0.000 -0.0015 0.113 -0.0015
1706887248.7072 0.116 0.000 -0.0015 0.116 -0.0015
1706887248.7149 0.118 0.000 0.0015 0.118 0.0015
1706887248.7236 0.120 0.000 0.0015 0.120 0.0015
1706887248.7319 0.122 0.000 0.0015 0.122 0.0015
1706887248.7397 0.125 0.000 0.0000 0.125 0.0000
1706887248.7479 0.128 0.000 -0.0015 0.128 -0.0015
1706887248.7551 0.130 0.000 -0.0029 0.130 -0.0029
1706887248.7648 0.132 0.000 -0.0015 0.132 -0.0015
1706887248.7715 0.135 0.000 0.0015 0.135 0.0015
1706887248.7798 0.137 0.000 0.0000 0.137 0.0000
1706887248.7875 0.139 0.000 -0.0029 0.139 -0.0029
1706887248.7958 0.141 0.000 -0.0029 0.141 -0.0029
1706887248.8030 0.144 0.000 -0.0015 0.144 -0.0015
1706887248.8117 0.146 0.000 0.0015 0.146 0.0015
1706887248.8196 0.149 0.000 0.0029 0.149 0.0029
1706887248.8278 0.151 0.000 0.0000 0.151 0.0000
1706887248.8356 0.153 0.000 -0.0015 0.153 -0.0015
1706887248.8438 0.156 0.000 0.0000 0.156 0.0000
1706887248.8510 0.158 0.000 0.0015 0.158 0.0015
1706887248.8597 0.160 0.000 0.0015 0.160 0.0015
1706887248.8669 0.162 0.000 -0.0029 0.162 -0.0029
1706887248.8758 0.165 0.000 -0.0058 0.165 -0.0058
1706887248.8836 0.168 0.000 -0.0015 0.168 -0.0015
1706887248.8919 0.170 0.000 0.0015 0.170 0.0015
1706887248.8999 0.172 0.000 0.0015 0.172 0.0015
1706887248.9077 0.174 0.000 -0.0044 0.174 -0.0044
1706887248.9149 0.177 0.000 -0.0058 0.177 -0.0058
1706887248.9238 0.180 0.000 -0.0044 0.180 -0.0044
1706887248.9316 0.182 0.000 0.0000 0.182 0.0000
1706887248.9398 0.184 0.000 -0.0015 0.184 -0.0015
1706887248.9478 0.186 0.000 -0.0029 0.186 -0.0029
1706887248.9555 0.189 -0.000 -0.0044 0.189 -0.0044
1706887248.9638 0.192 -0.000 -0.0029 0.192 -0.0029
1706887248.9716 0.194 -0.000 -0.0015 0.194 -0.0015
1706887248.9794 0.196 -0.000 0.0000 0.196 0.0000
1706887248.9876 0.198 -0.000 0.0000 0.198 0.0000
1706887248.9956 0.201 -0.000 0.0000 0.201 0.0000
1706887249.0034 0.204 -0.000 -0.0015 0.204 -0.0015
1706887249.0115 0.206 -0.000 -0.0029 0.206 -0.0029
1706887249.0204 0.208 -0.000 0.0015 0.208 0.0015
1706887249.0271 0.210 -0.000 0.0029 0.210 0.0029
1706887249.0352 0.213 -0.000 0.0015 0.213 0.0015
1706887249.0434 0.215 -0.000 -0.0015 0.215 -0.0015
1706887249.0512 0.217 -0.000 -0.0015 0.217 -0.0015
1706887249.0594 0.220 -0.000 0.0000 0.220 0.0000
1706887249.0677 0.222 -0.000 0.0015 0.222 0.0015
1706887249.0751 0.225 -0.000 0.0000 0.225 0.0000
1706887249.0831 0.227 -0.000 -0.0015 0.227 -0.0015
1706887249.0914 0.229 -0.000 0.0015 0.229 0.0015
1706887249.0991 0.232 -0.000 0.0029 0.232 0.0029
1706887249.1073 0.234 -0.000 0.0000 0.234 0.0000
1706887249.1156 0.236 -0.000 0.0000 0.236 0.0000
1706887249.1238 0.239 -0.000 0.0015 0.239 0.0015
1706887249.1310 0.241 -0.000 0.0029 0.241 0.0029
1706887249.1392 0.244 -0.000 0.0000 0.244 0.0000
1706887249.1469 0.246 -0.000 0.0000 0.246 0.0000
1706887249.1552 0.248 -0.000 0.0000 0.248 0.0000
1706887249.1630 0.251 -0.000 0.0015 0.251 0.0015
1706887249.1712 0.254 0.000 0.0029 0.254 0.0029
1706887249.1794 0.256 0.000 0.0029 0.256 0.0029
1706887249.1877 0.258 0.000 0.0000 0.258 0.0000
1706887249.1954 0.260 0.000 -0.0015 0.260 -0.0015
1706887249.2036 0.263 0.000 0.0015 0.263 0.0015
1706887249.2118 0.265 0.000 0.0029 0.265 0.0029
1706887249.2200 0.267 0.000 0.0000 0.267 0.0000
1706887249.2272 0.270 0.000 -0.0015 0.270 -0.0015
1706887249.2354 0.273 0.000 0.0000 0.273 0.0000
1706887249.2432 0.275 0.000 0.0015 0.275 0.0015
1706887249.2514 0.277 0.000 0.0000 0.277 0.0000
1706887249.2595 0.279 0.000 0.0015 0.279 0.0015
1706887249.2673 0.282 0.000 0.0015 0.282 0.0015
1706887249.2752 0.285 0.000 -0.0015 0.285 -0.0015
1706887249.2834 0.287 0.000 -0.0029 0.287 -0.0029
1706887249.2911 0.289 0.000 -0.0015 0.289 -0.0015
1706887249.2993 0.292 0.000 0.0015 0.292 0.0015
1706887249.3073 0.294 0.000 0.0000 0.294 0.0000
1706887249.3151 0.296 0.000 -0.0029 0.296 -0.0029
1706887249.3229 0.299 0.000 0.0000 0.299 0.0000
1706887249.3312 0.301 0.000 0.0044 0.301 0.0044
1706887249.3389 0.304 0.000 0.0029 0.304 0.0029
1706887249.3472 0.305 0.000 0.0000 0.305 0.0000
1706887249.3552 0.305 0.000 0.0000 0.305 0.0000
1706887249.3629 0.306 0.000 -0.0015 0.306 -0.0015
1706887249.3718 0.307 0.000 -0.0015 0.307 -0.0015
1706887249.3790 0.307 0.000 -0.0015 0.307 -0.0015
1706887249.3878 0.308 0.000 -0.0015 0.308 -0.0015
1706887249.3958 0.309 0.000 -0.0015 0.309 -0.0015
1706887249.4030 0.309 0.000 -0.0015 0.309 -0.0015
1706887249.4118 0.310 0.000 0.0000 0.310 0.0000
1706887249.4196 0.311 0.000 0.0015 0.311 0.0015
1706887249.4278 0.311 0.000 0.0029 0.311 0.0029
1706887249.4355 0.312 0.000 0.0044 0.312 0.0044
1706887249.4436 0.312 0.000 0.0088 0.312 0.0088
1706887249.4518 0.312 0.000 0.0088 0.312 0.0088
1706887249.4596 0.312 0.000 0.0102 0.312 0.0102
1706887249.4678 0.312 0.000 0.0117 0.312 0.0117
1706887249.4757 0.313 0.000 0.0131 0.313 0.0131
1706887249.4843 0.313 0.000 0.0161 0.313 0.0161
1706887249.4915 0.313 0.000 0.0190 0.313 0.0190
1706887249.4997 0.313 0.000 0.0205 0.313 0.0205
1706887249.5075 0.313 0.000 0.0219 0.313 0.0219
1706887249.5157 0.313 0.000 0.0234 0.313 0.0234
1706887249.5235 0.313 0.000 0.0263 0.313 0.0263
1706887249.5311 0.313 0.000 0.0278 0.313 0.0278
1706887249.5393 0.313 0.000 0.0321 0.313 0.0321
1706887249.5475 0.313 0.000 0.0351 0.313 0.0351
1706887249.5552 0.313 0.000 0.0380 0.313 0.0380
1706887249.5634 0.313 0.000 0.0424 0.313 0.0424
1706887249.5712 0.313 0.000 0.0468 0.313 0.0468
1706887249.5798 0.313 0.000 0.0541 0.313 0.0541
1706887249.5870 0.313 0.000 0.0584 0.313 0.0584
1706887249.5952 0.313 0.000 0.0628 0.313 0.0628
1706887249.6029 0.314 0.000 0.0687 0.314 0.0687
1706887249.6112 0.314 0.000 0.0730 0.314 0.0730
1706887249.6199 0.314 0.000 0.0774 0.314 0.0774
1706887249.6277 0.314 0.000 0.0833 0.314 0.0833
1706887249.6359 0.314 0.000 0.0891 0.314 0.0891
1706887249.6431 0.314 0.000 0.0935 0.314 0.0935
1706887249.6519 0.314 0.000 0.0964 0.314 0.0964
1706887249.6597 0.314 0.000 0.1008 0.314 0.1008
1706887249.6677 0.314 0.000 0.1066 0.314 0.1066
1706887249.6751 0.315 0.000 0.1140 0.315 0.1140
1706887249.6833 0.314 0.000 0.1169 0.314 0.1169
1706887249.6915 0.314 0.000 0.1183 0.314 0.1183
1706887249.6993 0.314 0.000 0.1227 0.314 0.1227
1706887249.7075 0.315 0.000 0.1315 0.315 0.1315
1706887249.7155 0.315 0.000 0.1359 0.315 0.1359
1706887249.7240 0.315 0.000 0.1373 0.315 0.1373
1706887249.7311 0.315 0.000 0.1432 0.315 0.1432
1706887249.7393 0.315 0.000 0.1505 0.315 0.1505
1706887249.7470 0.315 0.000 0.1549 0.315 0.1549
1706887249.7551 0.315 0.000 0.1578 0.315 0.1578
1706887249.7633 0.314 0.000 0.1592 0.314 0.1592
1706887249.7717 0.315 0.000 0.1651 0.315 0.1651
1706887249.7799 0.315 0.000 0.1724 0.315 0.1724
1706887249.7870 0.315 0.000 0.1768 0.315 0.1768
1706887249.7958 0.315 0.000 0.1782 0.315 0.1782
1706887249.8029 0.315 0.000 0.1797 0.315 0.1797
1706887249.8111 0.315 0.000 0.1870 0.315 0.1870
1706887249.8195 0.315 0.000 0.1928 0.315 0.1928
1706887249.8276 0.315 0.000 0.1987 0.315 0.1987
1706887249.8359 0.315 0.000 0.2001 0.315 0.2001
1706887249.8445 0.315 0.000 0.2045 0.315 0.2045
1706887249.8516 0.315 0.000 0.2075 0.315 0.2075
1706887249.8598 0.315 0.000 0.2148 0.315 0.2148
1706887249.8676 0.315 0.000 0.2221 0.315 0.2221
1706887249.8754 0.315 0.000 0.2221 0.315 0.2221
1706887249.8836 0.315 0.000 0.2235 0.315 0.2235
1706887249.8911 0.315 0.000 0.2279 0.315 0.2279
1706887249.8993 0.315 0.000 0.2323 0.315 0.2323
1706887249.9077 0.315 0.000 0.2381 0.315 0.2381
1706887249.9154 0.315 0.000 0.2440 0.315 0.2440
1706887249.9232 0.315 0.000 0.2484 0.315 0.2484
1706887249.9314 0.315 0.000 0.2527 0.315 0.2527
1706887249.9390 0.315 0.000 0.2557 0.315 0.2557
1706887249.9472 0.315 0.000 0.2600 0.315 0.2600
1706887249.9554 0.315 0.000 0.2674 0.315 0.2674
1706887249.9633 0.315 0.000 0.2703 0.315 0.2703
1706887249.9711 0.315 0.000 0.2717 0.315 0.2717
1706887249.9792 0.315 0.000 0.2761 0.315 0.2761
1706887249.9869 0.315 0.000 0.2790 0.315 0.2790
1706887249.9952 0.315 0.000 0.2834 0.315 0.2834
1706887250.0034 0.315 0.000 0.2893 0.315 0.2893
1706887250.0111 0.315 0.000 0.2922 0.315 0.2922
1706887250.0200 0.315 0.000 0.2966 0.315 0.2966
1706887250.0270 0.315 0.000 0.3010 0.315 0.3010
1706887250.0358 0.315 0.000 0.3053 0.315 0.3053
1706887250.0430 0.315 0.000 0.3068 0.315 0.3068
1706887250.0512 0.314 0.000 0.3112 0.314 0.3112
1706887250.0589 0.314 0.000 0.3141 0.314 0.3141
1706887250.0671 0.315 0.000 0.3185 0.315 0.3185
1706887250.0758 0.315 0.000 0.3258 0.315 0.3258
1706887250.0836 0.315 0.000 0.3273 0.315 0.3273
1706887250.0917 0.314 0.000 0.3287 0.314 0.3287
1706887250.0989 0.314 -0.000 0.3331 0.314 0.3331
1706887250.1078 0.314 0.000 0.3375 0.314 0.3375
1706887250.1158 0.315 0.000 0.3433 0.315 0.3433
1706887250.1237 0.315 0.000 0.3492 0.315 0.3492
1706887250.1314 0.314 0.000 0.3521 0.314 0.3521
1706887250.1396 0.314 -0.000 0.3535 0.314 0.3535
1706887250.1479 0.314 -0.000 0.3550 0.314 0.3550
1706887250.1556 0.314 -0.000 0.3623 0.314 0.3623
1706887250.1633 0.314 0.000 0.3696 0.314 0.3696
1706887250.1711 0.315 0.000 0.3725 0.315 0.3725
1706887250.1799 0.315 0.000 0.3769 0.315 0.3769
1706887250.1871 0.314 -0.000 0.3798 0.314 0.3798
1706887250.1953 0.314 -0.000 0.3842 0.314 0.3842
1706887250.2039 0.314 -0.000 0.3857 0.314 0.3857
1706887250.2111 0.314 -0.000 0.3886 0.314 0.3886
1706887250.2200 0.314 0.000 0.3930 0.314 0.3930
1706887250.2277 0.315 0.000 0.4003 0.315 0.4003
1706887250.2359 0.314 0.000 0.4047 0.314 0.4047
1706887250.2431 0.314 -0.000 0.4061 0.314 0.4061
1706887250.2517 0.314 0.000 0.4076 0.314 0.4076
1706887250.2599 0.314 0.000 0.4134 0.314 0.4134
1706887250.2670 0.314 0.000 0.4164 0.314 0.4164
1706887250.2754 0.314 -0.000 0.4208 0.314 0.4208
1706887250.2836 0.314 -0.000 0.4251 0.314 0.4251
1706887250.2919 0.314 -0.000 0.4295 0.314 0.4295
1706887250.2994 0.314 -0.000 0.4324 0.314 0.4324
1706887250.3076 0.314 -0.000 0.4339 0.314 0.4339
1706887250.3159 0.314 -0.000 0.4397 0.314 0.4397
1706887250.3233 0.314 -0.000 0.4470 0.314 0.4470
1706887250.3314 0.314 0.000 0.4514 0.314 0.4514
1706887250.3395 0.314 -0.000 0.4558 0.314 0.4558
1706887250.3473 0.314 -0.000 0.4602 0.314 0.4602
1706887250.3554 0.314 -0.000 0.4617 0.314 0.4617
1706887250.3637 0.314 -0.000 0.4631 0.314 0.4631
1706887250.3711 0.314 -0.000 0.4675 0.313 0.4675
1706887250.3793 0.314 -0.000 0.4719 0.314 0.4719
1706887250.3874 0.314 -0.000 0.4763 0.314 0.4763
1706887250.3951 0.314 -0.000 0.4807 0.314 0.4807
1706887250.4034 0.314 -0.000 0.4850 0.313 0.4850
1706887250.4117 0.314 -0.000 0.4880 0.314 0.4880
1706887250.4201 0.314 0.000 0.4909 0.314 0.4909
1706887250.4273 0.314 -0.000 0.4953 0.314 0.4953
1706887250.4353 0.314 -0.000 0.4996 0.313 0.4996
1706887250.4430 0.314 -0.000 0.5055 0.313 0.5055
1706887250.4514 0.314 -0.000 0.5099 0.314 0.5099
1706887250.4597 0.314 0.000 0.5113 0.314 0.5113
1706887250.4676 0.314 -0.000 0.5128 0.314 0.5128
1706887250.4753 0.314 -0.000 0.5201 0.314 0.5201
1706887250.4835 0.314 -0.000 0.5289 0.314 0.5289
1706887250.4914 0.314 0.000 0.5303 0.314 0.5303
1706887250.4996 0.315 0.000 0.5318 0.315 0.5318
1706887250.5069 0.314 -0.000 0.5362 0.314 0.5362
1706887250.5149 0.314 -0.000 0.5449 0.314 0.5449
1706887250.5238 0.314 -0.000 0.5479 0.314 0.5479
1706887250.5311 0.314 0.000 0.5522 0.314 0.5522
1706887250.5399 0.314 -0.000 0.5537 0.314 0.5537
1706887250.5471 0.314 -0.000 0.5581 0.313 0.5581
1706887250.5554 0.313 -0.000 0.5625 0.313 0.5625
1706887250.5640 0.314 -0.000 0.5668 0.314 0.5668
1706887250.5719 0.314 0.000 0.5727 0.314 0.5727
1706887250.5791 0.314 0.000 0.5771 0.314 0.5771
1706887250.5869 0.314 -0.000 0.5815 0.314 0.5815
1706887250.5952 0.314 -0.000 0.5844 0.313 0.5844
1706887250.6035 0.314 -0.000 0.5858 0.314 0.5858
1706887250.6111 0.314 -0.000 0.5888 0.314 0.5888
1706887250.6201 0.314 -0.000 0.5946 0.314 0.5946
1706887250.6273 0.314 -0.000 0.5990 0.313 0.5990
1706887250.6351 0.313 -0.001 0.6019 0.313 0.6019
1706887250.6435 0.313 -0.000 0.6034 0.313 0.6034
1706887250.6518 0.314 -0.000 0.6078 0.314 0.6078
1706887250.6601 0.314 0.000 0.6136 0.314 0.6136
1706887250.6673 0.314 -0.000 0.6194 0.314 0.6194
1706887250.6752 0.314 -0.000 0.6224 0.313 0.6224
1706887250.6829 0.314 -0.000 0.6238 0.314 0.6238
1706887250.6912 0.314 -0.000 0.6238 0.314 0.6238
1706887250.6993 0.314 -0.000 0.6282 0.314 0.6282
1706887250.7070 0.314 -0.000 0.6355 0.314 0.6355
1706887250.7153 0.314 -0.000 0.6428 0.313 0.6428
1706887250.7232 0.314 -0.000 0.6443 0.314 0.6443
1706887250.7310 0.314 -0.000 0.6443 0.314 0.6443
1706887250.7393 0.314 -0.000 0.6472 0.314 0.6472
1706887250.7473 0.314 -0.000 0.6530 0.314 0.6530
1706887250.7551 0.313 -0.000 0.6618 0.313 0.6618
1706887250.7635 0.314 -0.000 0.6633 0.313 0.6633
1706887250.7713 0.314 -0.000 0.6647 0.314 0.6647
1706887250.7791 0.314 -0.000 0.6677 0.314 0.6677
1706887250.7874 0.314 -0.000 0.6750 0.314 0.6750
1706887250.7955 0.313 -0.000 0.6793 0.313 0.6793
1706887250.8033 0.313 -0.001 0.6823 0.313 0.6823
1706887250.8115 0.313 -0.001 0.6837 0.313 0.6837
1706887250.8205 0.314 -0.000 0.6881 0.314 0.6881
1706887250.8271 0.314 -0.000 0.6939 0.314 0.6939
1706887250.8352 0.314 -0.000 0.7027 0.314 0.7027
1706887250.8435 0.313 -0.000 0.7056 0.313 0.7056
1706887250.8512 0.313 -0.000 0.7056 0.313 0.7056
1706887250.8595 0.314 -0.000 0.7071 0.313 0.7071
1706887250.8678 0.314 -0.000 0.7115 0.314 0.7115
1706887250.8752 0.314 -0.000 0.7202 0.314 0.7202
1706887250.8833 0.313 -0.001 0.7261 0.313 0.7261
1706887250.8917 0.313 -0.001 0.7290 0.313 0.7290
1706887250.8995 0.313 -0.001 0.7319 0.313 0.7319
1706887250.9077 0.313 -0.001 0.7363 0.313 0.7363
1706887250.9149 0.313 -0.001 0.7436 0.313 0.7436
1706887250.9243 0.313 -0.001 0.7465 0.313 0.7465
1706887250.9315 0.314 -0.000 0.7480 0.313 0.7480
1706887250.9398 0.314 -0.000 0.7509 0.313 0.7509
1706887250.9476 0.314 -0.000 0.7568 0.313 0.7568
1706887250.9549 0.313 -0.001 0.7626 0.313 0.7626
1706887250.9631 0.313 -0.001 0.7641 0.313 0.7641
1706887250.9714 0.313 -0.001 0.7670 0.313 0.7670
1706887250.9796 0.313 -0.001 0.7699 0.313 0.7699
1706887250.9869 0.313 -0.001 0.7758 0.313 0.7758
1706887250.9958 0.313 -0.001 0.7801 0.313 0.7801
1706887251.0031 0.313 -0.001 0.7816 0.313 0.7816
1706887251.0113 0.314 -0.000 0.7845 0.314 0.7845
1706887251.0196 0.314 -0.000 0.7889 0.313 0.7889
1706887251.0278 0.313 -0.001 0.7918 0.313 0.7918
1706887251.0350 0.313 -0.001 0.7977 0.313 0.7977
1706887251.0439 0.314 -0.000 0.8006 0.313 0.8006
1706887251.0511 0.314 0.000 0.8064 0.314 0.8064
1706887251.0592 0.314 0.000 0.8094 0.314 0.8094
1706887251.0669 0.314 -0.000 0.8123 0.314 0.8123
1706887251.0758 0.314 -0.000 0.8196 0.314 0.8196
1706887251.0830 0.314 -0.000 0.8240 0.314 0.8240
1706887251.0909 0.314 0.000 0.8254 0.314 0.8254
1706887251.0993 0.314 -0.000 0.8269 0.314 0.8269
1706887251.1073 0.314 -0.000 0.8313 0.314 0.8313
1706887251.1151 0.313 -0.001 0.8371 0.313 0.8371
1706887251.1230 0.314 0.000 0.8430 0.314 0.8430
1706887251.1312 0.314 0.000 0.8459 0.314 0.8459
1706887251.1390 0.314 0.000 0.8488 0.314 0.8488
1706887251.1472 0.314 -0.000 0.8532 0.314 0.8532
1706887251.1553 0.314 -0.000 0.8605 0.314 0.8605
1706887251.1638 0.314 0.000 0.8649 0.314 0.8649
1706887251.1716 0.314 0.000 0.8678 0.315 0.8678
1706887251.1798 0.314 0.000 0.8693 0.314 0.8693
1706887251.1876 0.314 0.000 0.8751 0.314 0.8751
1706887251.1957 0.314 -0.000 0.8824 0.314 0.8824
1706887251.2030 0.314 0.000 0.8868 0.314 0.8868
1706887251.2119 0.314 0.000 0.8883 0.314 0.8883
1706887251.2197 0.314 0.000 0.8897 0.314 0.8897
1706887251.2279 0.314 0.000 0.8941 0.314 0.8941
1706887251.2357 0.314 0.000 0.8999 0.314 0.8999
1706887251.2437 0.314 -0.000 0.9058 0.314 0.9058
1706887251.2510 0.314 -0.000 0.9072 0.314 0.9072
1706887251.2599 0.314 0.000 0.9072 0.314 0.9072
1706887251.2670 0.314 0.000 0.9146 0.314 0.9146
1706887251.2760 0.314 0.000 0.9204 0.314 0.9204
1706887251.2847 0.314 0.000 0.9233 0.314 0.9233
1706887251.2918 0.314 0.000 0.9248 0.314 0.9248
1706887251.2990 0.314 0.000 0.9262 0.314 0.9262
1706887251.3079 0.314 0.000 0.9306 0.314 0.9306
1706887251.3150 0.314 0.000 0.9394 0.314 0.9394
1706887251.3240 0.314 0.000 0.9452 0.314 0.9452
1706887251.3316 0.314 0.000 0.9452 0.314 0.9452
1706887251.3398 0.314 0.000 0.9482 0.314 0.9482
1706887251.3470 0.314 -0.000 0.9525 0.314 0.9525
1706887251.3559 0.314 0.000 0.9598 0.314 0.9598
1706887251.3631 0.314 0.000 0.9671 0.315 0.9671
1706887251.3710 0.314 0.001 0.9686 0.315 0.9686
1706887251.3796 0.314 0.000 0.9715 0.314 0.9715
1706887251.3878 0.314 0.000 0.9759 0.314 0.9759
1706887251.3950 0.314 -0.000 0.9803 0.314 0.9803
1706887251.4038 0.314 -0.000 0.9847 0.314 0.9847
1706887251.4111 0.314 0.000 0.9876 0.314 0.9876
